10	40	34.59
10.01	29	34.55
10.02	41	34.51
10.03	32	34.46
10.04	35	34.42
10.05	29	34.38
10.06	30	34.34
10.07	37	34.3
10.08	32	34.26
10.09	35	34.22
10.1	41	34.18
10.11	31	34.15
10.12	44	34.11
10.13	35	34.07
10.14	31	34.04
10.15	34	34
10.16	46	33.97
10.17	38	33.93
10.18	35	33.9
10.19	29	33.87
10.2	46	33.83
10.21	37	33.8
10.22	32	33.77
10.23	41	33.74
10.24	27	33.71
10.25	36	33.68
10.26	31	33.65
10.27	33	33.62
10.28	35	33.59
10.29	42	33.56
10.3	45	33.53
10.31	34	33.51
10.32	29	33.48
10.33	41	33.45
10.34	20	33.43
10.35	29	33.4
10.36	31	33.37
10.37	30	33.35
10.38	35	33.33
10.39	31	33.3
10.4	40	33.28
10.41	39	33.25
10.42	36	33.23
10.43	39	33.21
10.44	30	33.19
10.45	21	33.17
10.46	34	33.14
10.47	24	33.12
10.48	33	33.1
10.49	30	33.08
10.5	28	33.06
10.51	27	33.04
10.52	29	33.03
10.53	33	33.01
10.54	36	32.99
10.55	29	32.97
10.56	29	32.95
10.57	42	32.93
10.58	35	32.92
10.59	32	32.9
10.6	41	32.88
10.61	38	32.87
10.62	36	32.85
10.63	33	32.84
10.64	39	32.82
10.65	32	32.81
10.66	39	32.79
10.67	31	32.78
10.68	42	32.76
10.69	34	32.75
10.7	36	32.74
10.71	33	32.72
10.72	36	32.71
10.73	34	32.7
10.74	27	32.69
10.75	29	32.67
10.76	33	32.66
10.77	32	32.65
10.78	36	32.64
10.79	36	32.63
10.8	31	32.62
10.81	30	32.61
10.82	38	32.6
10.83	29	32.59
10.84	26	32.58
10.85	38	32.57
10.86	34	32.56
10.87	37	32.55
10.88	32	32.54
10.89	34	32.53
10.9	29	32.52
10.91	27	32.51
10.92	36	32.5
10.93	42	32.5
10.94	34	32.49
10.95	35	32.48
10.96	37	32.47
10.97	28	32.47
10.98	26	32.46
10.99	28	32.45
11	25	32.45
11.01	35	32.44
11.02	28	32.43
11.03	29	32.43
11.04	27	32.42
11.05	32	32.41
11.06	33	32.41
11.07	49	32.4
11.08	39	32.4
11.09	26	32.39
11.1	39	32.39
11.11	31	32.38
11.12	44	32.38
11.13	31	32.37
11.14	34	32.37
11.15	40	32.37
11.16	38	32.36
11.17	43	32.36
11.18	22	32.35
11.19	36	32.35
11.2	35	32.35
11.21	28	32.34
11.22	39	32.34
11.23	34	32.34
11.24	28	32.33
11.25	31	32.33
11.26	33	32.33
11.27	31	32.33
11.28	33	32.32
11.29	31	32.32
11.3	32	32.32
11.31	41	32.32
11.32	46	32.32
11.33	41	32.31
11.34	30	32.31
11.35	38	32.31
11.36	36	32.31
11.37	30	32.31
11.38	28	32.31
11.39	37	32.31
11.4	34	32.3
11.41	34	32.3
11.42	36	32.3
11.43	39	32.3
11.44	39	32.3
11.45	42	32.3
11.46	39	32.3
11.47	36	32.3
11.48	28	32.3
11.49	30	32.3
11.5	45	32.3
11.51	34	32.3
11.52	37	32.3
11.53	39	32.3
11.54	42	32.3
11.55	34	32.3
11.56	31	32.3
11.57	26	32.3
11.58	33	32.3
11.59	39	32.3
11.6	43	32.3
11.61	32	32.3
11.62	28	32.3
11.63	41	32.31
11.64	34	32.31
11.65	38	32.31
11.66	32	32.31
11.67	35	32.31
11.68	38	32.31
11.69	33	32.31
11.7	35	32.31
11.71	28	32.31
11.72	36	32.32
11.73	34	32.32
11.74	39	32.32
11.75	46	32.32
11.76	31	32.32
11.77	43	32.32
11.78	36	32.33
11.79	28	32.33
11.8	33	32.33
11.81	29	32.33
11.82	40	32.33
11.83	39	32.34
11.84	33	32.34
11.85	26	32.34
11.86	22	32.34
11.87	27	32.34
11.88	41	32.35
11.89	34	32.35
11.9	26	32.35
11.91	36	32.35
11.92	30	32.36
11.93	43	32.36
11.94	31	32.36
11.95	26	32.36
11.96	38	32.37
11.97	33	32.37
11.98	25	32.37
11.99	32	32.37
12	45	32.38
12.01	28	32.38
12.02	42	32.38
12.03	38	32.39
12.04	35	32.39
12.05	25	32.39
12.06	25	32.39
12.07	28	32.4
12.08	33	32.4
12.09	25	32.4
12.1	33	32.41
12.11	34	32.41
12.12	35	32.41
12.13	41	32.41
12.14	49	32.42
12.15	28	32.42
12.16	35	32.42
12.17	49	32.43
12.18	33	32.43
12.19	33	32.43
12.2	31	32.44
12.21	40	32.44
12.22	31	32.44
12.23	36	32.45
12.24	33	32.45
12.25	46	32.45
12.26	45	32.46
12.27	37	32.46
12.28	40	32.46
12.29	46	32.47
12.3	42	32.47
12.31	40	32.47
12.32	45	32.48
12.33	39	32.48
12.34	45	32.48
12.35	31	32.49
12.36	44	32.49
12.37	47	32.49
12.38	43	32.5
12.39	48	32.5
12.4	42	32.51
12.41	55	32.51
12.42	48	32.51
12.43	43	32.52
12.44	45	32.52
12.45	45	32.52
12.46	61	32.53
12.47	60	32.53
12.48	64	32.53
12.49	86	32.54
12.5	82	32.54
12.51	74	32.55
12.52	87	32.55
12.53	94	32.55
12.54	102	32.56
12.55	114	32.56
12.56	122	32.56
12.57	165	32.57
12.58	159	32.57
12.59	168	32.57
12.6	154	32.58
12.61	143	32.58
12.62	122	32.59
12.63	122	32.59
12.64	84	32.59
12.65	76	32.6
12.66	74	32.6
12.67	50	32.6
12.68	42	32.61
12.69	45	32.61
12.7	59	32.62
12.71	48	32.62
12.72	54	32.62
12.73	51	32.63
12.74	66	32.63
12.75	70	32.63
12.76	56	32.64
12.77	60	32.64
12.78	75	32.64
12.79	64	32.65
12.8	78	32.65
12.81	82	32.66
12.82	89	32.66
12.83	105	32.66
12.84	95	32.67
12.85	106	32.67
12.86	97	32.67
12.87	105	32.68
12.88	75	32.68
12.89	72	32.69
12.9	56	32.69
12.91	60	32.69
12.92	47	32.7
12.93	40	32.7
12.94	43	32.7
12.95	40	32.71
12.96	35	32.71
12.97	36	32.72
12.98	38	32.72
12.99	42	32.72
13	33	32.73
13.01	38	32.73
13.02	38	32.73
13.03	44	32.74
13.04	34	32.74
13.05	33	32.74
13.06	33	32.75
13.07	42	32.75
13.08	37	32.76
13.09	38	32.76
13.1	43	32.76
13.11	34	32.77
13.12	39	32.77
13.13	22	32.77
13.14	36	32.78
13.15	45	32.78
13.16	30	32.78
13.17	40	32.79
13.18	31	32.79
13.19	28	32.8
13.2	35	32.8
13.21	34	32.8
13.22	30	32.81
13.23	33	32.81
13.24	39	32.81
13.25	31	32.82
13.26	37	32.82
13.27	31	32.82
13.28	33	32.83
13.29	42	32.83
13.3	41	32.83
13.31	38	32.84
13.32	34	32.84
13.33	40	32.84
13.34	32	32.85
13.35	31	32.85
13.36	37	32.85
13.37	35	32.86
13.38	39	32.86
13.39	34	32.87
13.4	40	32.87
13.41	24	32.87
13.42	40	32.88
13.43	30	32.88
13.44	46	32.88
13.45	39	32.89
13.46	36	32.89
13.47	36	32.89
13.48	35	32.9
13.49	42	32.9
13.5	41	32.9
13.51	32	32.91
13.52	48	32.91
13.53	38	32.91
13.54	33	32.92
13.55	40	32.92
13.56	44	32.92
13.57	41	32.93
13.58	33	32.93
13.59	28	32.93
13.6	38	32.94
13.61	38	32.94
13.62	45	32.94
13.63	41	32.95
13.64	26	32.95
13.65	42	32.95
13.66	34	32.96
13.67	41	32.96
13.68	36	32.96
13.69	33	32.97
13.7	32	32.97
13.71	34	32.97
13.72	30	32.98
13.73	28	32.98
13.74	38	32.98
13.75	39	32.99
13.76	41	32.99
13.77	40	32.99
13.78	34	33
13.79	36	33
13.8	34	33
13.81	38	33.01
13.82	34	33.01
13.83	34	33.01
13.84	40	33.01
13.85	32	33.02
13.86	42	33.02
13.87	42	33.02
13.88	41	33.03
13.89	48	33.03
13.9	46	33.03
13.91	37	33.04
13.92	27	33.04
13.93	27	33.04
13.94	44	33.05
13.95	33	33.05
13.96	36	33.05
13.97	39	33.06
13.98	36	33.06
13.99	43	33.06
14	28	33.07
14.01	29	33.07
14.02	33	33.07
14.03	33	33.07
14.04	33	33.08
14.05	28	33.08
14.06	40	33.08
14.07	39	33.09
14.08	39	33.09
14.09	42	33.09
14.1	36	33.1
14.11	36	33.1
14.12	39	33.1
14.13	36	33.11
14.14	37	33.11
14.15	33	33.11
14.16	44	33.11
14.17	31	33.12
14.18	32	33.12
14.19	42	33.12
14.2	39	33.13
14.21	30	33.13
14.22	41	33.13
14.23	41	33.14
14.24	39	33.14
14.25	37	33.14
14.26	36	33.15
14.27	35	33.15
14.28	31	33.15
14.29	28	33.15
14.3	33	33.16
14.31	30	33.16
14.32	28	33.16
14.33	35	33.17
14.34	36	33.17
14.35	29	33.17
14.36	32	33.18
14.37	43	33.18
14.38	32	33.18
14.39	38	33.18
14.4	46	33.19
14.41	29	33.19
14.42	32	33.19
14.43	35	33.2
14.44	36	33.2
14.45	31	33.2
14.46	43	33.21
14.47	44	33.21
14.48	37	33.21
14.49	39	33.21
14.5	43	33.22
14.51	38	33.22
14.52	50	33.22
14.53	39	33.23
14.54	42	33.23
14.55	33	33.23
14.56	37	33.24
14.57	48	33.24
14.58	38	33.24
14.59	43	33.24
14.6	43	33.25
14.61	36	33.25
14.62	38	33.25
14.63	28	33.26
14.64	44	33.26
14.65	30	33.26
14.66	35	33.27
14.67	43	33.27
14.68	44	33.27
14.69	45	33.28
14.7	44	33.28
14.71	51	33.28
14.72	42	33.28
14.73	35	33.29
14.74	47	33.29
14.75	41	33.29
14.76	45	33.3
14.77	47	33.3
14.78	31	33.3
14.79	46	33.31
14.8	52	33.31
14.81	38	33.31
14.82	50	33.31
14.83	55	33.32
14.84	35	33.32
14.85	63	33.32
14.86	48	33.33
14.87	57	33.33
14.88	54	33.33
14.89	50	33.34
14.9	68	33.34
14.91	76	33.34
14.92	72	33.35
14.93	61	33.35
14.94	71	33.35
14.95	86	33.35
14.96	84	33.36
14.97	103	33.36
14.98	116	33.36
14.99	135	33.37
15	137	33.37
15.01	125	33.37
15.02	120	33.38
15.03	139	33.38
15.04	104	33.38
15.05	122	33.39
15.06	111	33.39
15.07	113	33.39
15.08	85	33.39
15.09	115	33.4
15.1	100	33.4
15.11	130	33.4
15.12	149	33.41
15.13	154	33.41
15.14	144	33.41
15.15	184	33.42
15.16	156	33.42
15.17	150	33.42
15.18	164	33.43
15.19	148	33.43
15.2	151	33.43
15.21	100	33.44
15.22	115	33.44
15.23	74	33.44
15.24	67	33.45
15.25	47	33.45
15.26	63	33.45
15.27	35	33.46
15.28	46	33.46
15.29	36	33.46
15.3	36	33.47
15.31	37	33.47
15.32	35	33.47
15.33	44	33.47
15.34	34	33.48
15.35	37	33.48
15.36	33	33.48
15.37	53	33.49
15.38	38	33.49
15.39	41	33.49
15.4	45	33.5
15.41	40	33.5
15.42	36	33.5
15.43	36	33.51
15.44	32	33.51
15.45	27	33.51
15.46	28	33.52
15.47	34	33.52
15.48	15	33.52
15.49	29	33.53
15.5	43	33.53
15.51	43	33.54
15.52	50	33.54
15.53	42	33.54
15.54	37	33.55
15.55	35	33.55
15.56	35	33.55
15.57	43	33.56
15.58	43	33.56
15.59	31	33.56
15.6	48	33.57
15.61	29	33.57
15.62	33	33.57
15.63	46	33.58
15.64	40	33.58
15.65	31	33.58
15.66	39	33.59
15.67	30	33.59
15.68	36	33.59
15.69	31	33.6
15.7	35	33.6
15.71	41	33.6
15.72	30	33.61
15.73	38	33.61
15.74	36	33.62
15.75	44	33.62
15.76	28	33.62
15.77	30	33.63
15.78	34	33.63
15.79	45	33.63
15.8	38	33.64
15.81	32	33.64
15.82	38	33.64
15.83	50	33.65
15.84	33	33.65
15.85	35	33.66
15.86	34	33.66
15.87	49	33.66
15.88	41	33.67
15.89	34	33.67
15.9	31	33.67
15.91	35	33.68
15.92	29	33.68
15.93	33	33.69
15.94	38	33.69
15.95	35	33.69
15.96	31	33.7
15.97	37	33.7
15.98	42	33.7
15.99	47	33.71
16	42	33.71
16.01	26	33.72
16.02	30	33.72
16.03	44	33.72
16.04	39	33.73
16.05	34	33.73
16.06	35	33.74
16.07	35	33.74
16.08	33	33.74
16.09	34	33.75
16.1	24	33.75
16.11	43	33.76
16.12	32	33.76
16.13	29	33.76
16.14	37	33.77
16.15	29	33.77
16.16	47	33.78
16.17	35	33.78
16.18	41	33.78
16.19	40	33.79
16.2	32	33.79
16.21	50	33.8
16.22	52	33.8
16.23	36	33.8
16.24	29	33.81
16.25	36	33.81
16.26	41	33.82
16.27	30	33.82
16.28	34	33.82
16.29	36	33.83
16.3	35	33.83
16.31	31	33.84
16.32	40	33.84
16.33	37	33.85
16.34	32	33.85
16.35	35	33.85
16.36	39	33.86
16.37	43	33.86
16.38	35	33.87
16.39	33	33.87
16.4	38	33.88
16.41	35	33.88
16.42	34	33.88
16.43	25	33.89
16.44	33	33.89
16.45	33	33.9
16.46	33	33.9
16.47	32	33.91
16.48	48	33.91
16.49	47	33.92
16.5	36	33.92
16.51	37	33.92
16.52	35	33.93
16.53	41	33.93
16.54	40	33.94
16.55	39	33.94
16.56	36	33.95
16.57	42	33.95
16.58	34	33.96
16.59	28	33.96
16.6	36	33.96
16.61	41	33.97
16.62	38	33.97
16.63	22	33.98
16.64	40	33.98
16.65	43	33.99
16.66	31	33.99
16.67	41	34
16.68	29	34
16.69	31	34.01
16.7	33	34.01
16.71	42	34.02
16.72	37	34.02
16.73	48	34.03
16.74	39	34.03
16.75	34	34.03
16.76	28	34.04
16.77	35	34.04
16.78	45	34.05
16.79	36	34.05
16.8	41	34.06
16.81	45	34.06
16.82	32	34.07
16.83	40	34.07
16.84	43	34.08
16.85	42	34.08
16.86	36	34.09
16.87	43	34.09
16.88	46	34.1
16.89	39	34.1
16.9	30	34.11
16.91	41	34.11
16.92	42	34.12
16.93	33	34.12
16.94	59	34.13
16.95	45	34.13
16.96	31	34.14
16.97	29	34.14
16.98	40	34.15
16.99	47	34.15
17	35	34.16
17.01	49	34.16
17.02	32	34.17
17.03	27	34.17
17.04	30	34.18
17.05	37	34.18
17.06	39	34.19
17.07	39	34.19
17.08	29	34.2
17.09	27	34.2
17.1	34	34.21
17.11	41	34.21
17.12	35	34.22
17.13	40	34.22
17.14	37	34.23
17.15	42	34.24
17.16	33	34.24
17.17	29	34.25
17.18	38	34.25
17.19	40	34.26
17.2	29	34.26
17.21	43	34.27
17.22	38	34.27
17.23	41	34.28
17.24	34	34.28
17.25	36	34.29
17.26	37	34.29
17.27	43	34.3
17.28	41	34.31
17.29	33	34.31
17.3	29	34.32
17.31	30	34.32
17.32	32	34.33
17.33	37	34.33
17.34	36	34.34
17.35	31	34.34
17.36	40	34.35
17.37	34	34.36
17.38	32	34.36
17.39	39	34.37
17.4	39	34.37
17.41	47	34.38
17.42	35	34.38
17.43	35	34.39
17.44	29	34.39
17.45	38	34.4
17.46	36	34.41
17.47	33	34.41
17.48	37	34.42
17.49	34	34.42
17.5	26	34.43
17.51	38	34.44
17.52	29	34.44
17.53	31	34.45
17.54	58	34.45
17.55	39	34.46
17.56	37	34.46
17.57	36	34.47
17.58	28	34.48
17.59	33	34.48
17.6	41	34.49
17.61	33	34.49
17.62	38	34.5
17.63	41	34.51
17.64	39	34.51
17.65	35	34.52
17.66	32	34.52
17.67	33	34.53
17.68	42	34.54
17.69	39	34.54
17.7	36	34.55
17.71	31	34.55
17.72	39	34.56
17.73	40	34.57
17.74	43	34.57
17.75	38	34.58
17.76	33	34.58
17.77	38	34.59
17.78	31	34.6
17.79	41	34.6
17.8	32	34.61
17.81	45	34.62
17.82	37	34.62
17.83	35	34.63
17.84	50	34.63
17.85	37	34.64
17.86	41	34.65
17.87	40	34.65
17.88	33	34.66
17.89	44	34.67
17.9	27	34.67
17.91	36	34.68
17.92	40	34.68
17.93	45	34.69
17.94	35	34.7
17.95	35	34.7
17.96	45	34.71
17.97	52	34.72
17.98	47	34.72
17.99	33	34.73
18	37	34.74
18.01	30	34.74
18.02	40	34.75
18.03	39	34.75
18.04	27	34.76
18.05	35	34.77
18.06	35	34.77
18.07	45	34.78
18.08	40	34.79
18.09	36	34.79
18.1	35	34.8
18.11	38	34.81
18.12	34	34.81
18.13	35	34.82
18.14	41	34.83
18.15	37	34.83
18.16	53	34.84
18.17	30	34.85
18.18	36	34.85
18.19	39	34.86
18.2	45	34.87
18.21	43	34.87
18.22	26	34.88
18.23	38	34.89
18.24	35	34.89
18.25	37	34.9
18.26	24	34.91
18.27	35	34.91
18.28	45	34.92
18.29	43	34.93
18.3	47	34.94
18.31	41	34.94
18.32	30	34.95
18.33	33	34.96
18.34	31	34.96
18.35	43	34.97
18.36	43	34.98
18.37	47	34.98
18.38	47	34.99
18.39	37	35
18.4	42	35
18.41	41	35.01
18.42	33	35.02
18.43	42	35.03
18.44	44	35.03
18.45	26	35.04
18.46	42	35.05
18.47	39	35.05
18.48	33	35.06
18.49	45	35.07
18.5	45	35.07
18.51	49	35.08
18.52	39	35.09
18.53	45	35.1
18.54	35	35.1
18.55	41	35.11
18.56	50	35.12
18.57	37	35.12
18.58	46	35.13
18.59	42	35.14
18.6	38	35.15
18.61	37	35.15
18.62	32	35.16
18.63	46	35.17
18.64	34	35.18
18.65	48	35.18
18.66	46	35.19
18.67	33	35.2
18.68	33	35.2
18.69	32	35.21
18.7	32	35.22
18.71	38	35.23
18.72	41	35.23
18.73	29	35.24
18.74	44	35.25
18.75	35	35.26
18.76	45	35.26
18.77	41	35.27
18.78	42	35.28
18.79	35	35.29
18.8	41	35.29
18.81	33	35.3
18.82	46	35.31
18.83	36	35.32
18.84	42	35.32
18.85	41	35.33
18.86	44	35.34
18.87	31	35.35
18.88	38	35.35
18.89	38	35.36
18.9	40	35.37
18.91	49	35.38
18.92	37	35.38
18.93	42	35.39
18.94	30	35.4
18.95	33	35.41
18.96	47	35.41
18.97	45	35.42
18.98	37	35.43
18.99	37	35.44
19	28	35.44
19.01	42	35.45
19.02	44	35.46
19.03	29	35.47
19.04	41	35.48
19.05	34	35.48
19.06	34	35.49
19.07	37	35.5
19.08	26	35.51
19.09	43	35.51
19.1	35	35.52
19.11	28	35.53
19.12	40	35.54
19.13	43	35.55
19.14	34	35.55
19.15	30	35.56
19.16	31	35.57
19.17	32	35.58
19.18	36	35.59
19.19	33	35.59
19.2	43	35.6
19.21	45	35.61
19.22	46	35.62
19.23	39	35.62
19.24	31	35.63
19.25	34	35.64
19.26	39	35.65
19.27	38	35.66
19.28	37	35.66
19.29	34	35.67
19.3	44	35.68
19.31	42	35.69
19.32	49	35.7
19.33	37	35.7
19.34	48	35.71
19.35	48	35.72
19.36	37	35.73
19.37	39	35.74
19.38	43	35.74
19.39	32	35.75
19.4	42	35.76
19.41	42	35.77
19.42	42	35.78
19.43	41	35.79
19.44	38	35.79
19.45	36	35.8
19.46	54	35.81
19.47	42	35.82
19.48	46	35.83
19.49	40	35.83
19.5	38	35.84
19.51	50	35.85
19.52	43	35.86
19.53	43	35.87
19.54	34	35.88
19.55	42	35.88
19.56	45	35.89
19.57	28	35.9
19.58	36	35.91
19.59	38	35.92
19.6	44	35.92
19.61	43	35.93
19.62	29	35.94
19.63	38	35.95
19.64	42	35.96
19.65	50	35.97
19.66	39	35.97
19.67	43	35.98
19.68	50	35.99
19.69	45	36
19.7	48	36.01
19.71	46	36.02
19.72	37	36.02
19.73	31	36.03
19.74	57	36.04
19.75	36	36.05
19.76	43	36.06
19.77	46	36.07
19.78	34	36.08
19.79	39	36.08
19.8	37	36.09
19.81	38	36.1
19.82	32	36.11
19.83	45	36.12
19.84	43	36.13
19.85	45	36.13
19.86	43	36.14
19.87	48	36.15
19.88	40	36.16
19.89	39	36.17
19.9	47	36.18
19.91	50	36.19
19.92	62	36.19
19.93	56	36.2
19.94	63	36.21
19.95	66	36.22
19.96	55	36.23
19.97	77	36.24
19.98	62	36.25
19.99	83	36.25
20	102	36.26
20.01	95	36.27
20.02	131	36.28
20.03	125	36.29
20.04	106	36.3
20.05	120	36.31
20.06	112	36.31
20.07	104	36.32
20.08	98	36.33
20.09	71	36.34
20.1	91	36.35
20.11	54	36.36
20.12	50	36.37
20.13	58	36.38
20.14	45	36.38
20.15	40	36.39
20.16	51	36.4
20.17	40	36.41
20.18	46	36.42
20.19	40	36.43
20.2	50	36.44
20.21	37	36.45
20.22	40	36.45
20.23	38	36.46
20.24	36	36.47
20.25	41	36.48
20.26	43	36.49
20.27	36	36.5
20.28	38	36.51
20.29	48	36.52
20.3	46	36.52
20.31	52	36.53
20.32	45	36.54
20.33	41	36.55
20.34	40	36.56
20.35	37	36.57
20.36	39	36.58
20.37	41	36.59
20.38	36	36.6
20.39	33	36.6
20.4	35	36.61
20.41	37	36.62
20.42	51	36.63
20.43	53	36.64
20.44	27	36.65
20.45	44	36.66
20.46	40	36.67
20.47	41	36.68
20.48	37	36.68
20.49	48	36.69
20.5	40	36.7
20.51	32	36.71
20.52	38	36.72
20.53	40	36.73
20.54	36	36.74
20.55	40	36.75
20.56	44	36.76
20.57	36	36.76
20.58	37	36.77
20.59	43	36.78
20.6	42	36.79
20.61	36	36.8
20.62	36	36.81
20.63	42	36.82
20.64	47	36.83
20.65	47	36.84
20.66	32	36.85
20.67	44	36.85
20.68	31	36.86
20.69	41	36.87
20.7	47	36.88
20.71	43	36.89
20.72	44	36.9
20.73	39	36.91
20.74	41	36.92
20.75	51	36.93
20.76	45	36.94
20.77	42	36.94
20.78	43	36.95
20.79	56	36.96
20.8	45	36.97
20.81	44	36.98
20.82	42	36.99
20.83	47	37
20.84	44	37.01
20.85	48	37.02
20.86	40	37.03
20.87	46	37.04
20.88	43	37.04
20.89	42	37.05
20.9	40	37.06
20.91	43	37.07
20.92	44	37.08
20.93	32	37.09
20.94	40	37.1
20.95	57	37.11
20.96	43	37.12
20.97	44	37.13
20.98	35	37.14
20.99	42	37.15
21	32	37.15
21.01	44	37.16
21.02	42	37.17
21.03	43	37.18
21.04	52	37.19
21.05	40	37.2
21.06	38	37.21
21.07	52	37.22
21.08	41	37.23
21.09	48	37.24
21.1	42	37.25
21.11	37	37.26
21.12	38	37.26
21.13	47	37.27
21.14	46	37.28
21.15	45	37.29
21.16	50	37.3
21.17	53	37.31
21.18	45	37.32
21.19	58	37.33
21.2	53	37.34
21.21	68	37.35
21.22	73	37.36
21.23	72	37.37
21.24	78	37.38
21.25	76	37.38
21.26	85	37.39
21.27	68	37.4
21.28	114	37.41
21.29	109	37.42
21.3	161	37.43
21.31	167	37.44
21.32	194	37.45
21.33	228	37.46
21.34	264	37.47
21.35	280	37.48
21.36	352	37.49
21.37	385	37.5
21.38	416	37.5
21.39	465	37.51
21.4	481	37.52
21.41	497	37.53
21.42	489	37.54
21.43	524	37.55
21.44	506	37.56
21.45	431	37.57
21.46	421	37.58
21.47	372	37.59
21.48	324	37.6
21.49	316	37.61
21.5	281	37.62
21.51	258	37.62
21.52	209	37.63
21.53	187	37.64
21.54	185	37.65
21.55	201	37.66
21.56	197	37.67
21.57	219	37.68
21.58	204	37.69
21.59	177	37.7
21.6	202	37.71
21.61	153	37.72
21.62	158	37.73
21.63	154	37.74
21.64	129	37.75
21.65	105	37.75
21.66	102	37.76
21.67	91	37.77
21.68	86	37.78
21.69	58	37.79
21.7	64	37.8
21.71	38	37.81
21.72	55	37.82
21.73	58	37.83
21.74	61	37.84
21.75	60	37.85
21.76	53	37.86
21.77	48	37.87
21.78	48	37.88
21.79	42	37.88
21.8	54	37.89
21.81	43	37.9
21.82	55	37.91
21.83	45	37.92
21.84	57	37.93
21.85	40	37.94
21.86	55	37.95
21.87	43	37.96
21.88	53	37.97
21.89	51	37.98
21.9	43	37.99
21.91	39	38
21.92	38	38.01
21.93	43	38.02
21.94	47	38.02
21.95	51	38.03
21.96	39	38.04
21.97	48	38.05
21.98	43	38.06
21.99	32	38.07
22	47	38.08
22.01	43	38.09
22.02	41	38.1
22.03	40	38.11
22.04	46	38.12
22.05	53	38.13
22.06	39	38.14
22.07	48	38.15
22.08	48	38.15
22.09	52	38.16
22.1	45	38.17
22.11	43	38.18
22.12	49	38.19
22.13	47	38.2
22.14	46	38.21
22.15	61	38.22
22.16	40	38.23
22.17	64	38.24
22.18	56	38.25
22.19	47	38.26
22.2	41	38.27
22.21	56	38.28
22.22	68	38.28
22.23	65	38.29
22.24	65	38.3
22.25	62	38.31
22.26	72	38.32
22.27	89	38.33
22.28	89	38.34
22.29	102	38.35
22.3	125	38.36
22.31	129	38.37
22.32	173	38.38
22.33	200	38.39
22.34	224	38.4
22.35	230	38.41
22.36	244	38.41
22.37	217	38.42
22.38	222	38.43
22.39	204	38.44
22.4	197	38.45
22.41	194	38.46
22.42	138	38.47
22.43	131	38.48
22.44	113	38.49
22.45	94	38.5
22.46	96	38.51
22.47	67	38.52
22.48	60	38.53
22.49	68	38.53
22.5	46	38.54
22.51	53	38.55
22.52	33	38.56
22.53	36	38.57
22.54	42	38.58
22.55	39	38.59
22.56	48	38.6
22.57	51	38.61
22.58	54	38.62
22.59	41	38.63
22.6	42	38.64
22.61	35	38.65
22.62	38	38.65
22.63	32	38.66
22.64	60	38.67
22.65	40	38.68
22.66	34	38.69
22.67	49	38.7
22.68	47	38.71
22.69	49	38.72
22.7	44	38.73
22.71	54	38.74
22.72	41	38.75
22.73	37	38.76
22.74	36	38.76
22.75	48	38.77
22.76	37	38.78
22.77	38	38.79
22.78	50	38.8
22.79	53	38.81
22.8	35	38.82
22.81	48	38.83
22.82	39	38.84
22.83	35	38.85
22.84	49	38.86
22.85	50	38.87
22.86	38	38.87
22.87	55	38.88
22.88	54	38.89
22.89	63	38.9
22.9	34	38.91
22.91	58	38.92
22.92	42	38.93
22.93	26	38.94
22.94	37	38.95
22.95	48	38.96
22.96	45	38.97
22.97	39	38.97
22.98	34	38.98
22.99	37	38.99
23	43	39
23.01	45	39.01
23.02	34	39.02
23.03	36	39.03
23.04	38	39.04
23.05	40	39.05
23.06	40	39.06
23.07	35	39.07
23.08	45	39.07
23.09	39	39.08
23.1	58	39.09
23.11	48	39.1
23.12	36	39.11
23.13	56	39.12
23.14	42	39.13
23.15	51	39.14
23.16	31	39.15
23.17	40	39.16
23.18	45	39.16
23.19	48	39.17
23.2	35	39.18
23.21	51	39.19
23.22	43	39.2
23.23	50	39.21
23.24	40	39.22
23.25	30	39.23
23.26	52	39.24
23.27	44	39.25
23.28	37	39.25
23.29	42	39.26
23.3	44	39.27
23.31	41	39.28
23.32	29	39.29
23.33	52	39.3
23.34	45	39.31
23.35	45	39.32
23.36	48	39.33
23.37	43	39.33
23.38	36	39.34
23.39	53	39.35
23.4	33	39.36
23.41	36	39.37
23.42	52	39.38
23.43	36	39.39
23.44	39	39.4
23.45	43	39.41
23.46	34	39.42
23.47	47	39.42
23.48	43	39.43
23.49	36	39.44
23.5	49	39.45
23.51	39	39.46
23.52	40	39.47
23.53	47	39.48
23.54	47	39.49
23.55	34	39.49
23.56	50	39.5
23.57	41	39.51
23.58	37	39.52
23.59	43	39.53
23.6	42	39.54
23.61	57	39.55
23.62	45	39.56
23.63	40	39.57
23.64	40	39.57
23.65	57	39.58
23.66	50	39.59
23.67	37	39.6
23.68	53	39.61
23.69	47	39.62
23.7	42	39.63
23.71	32	39.64
23.72	37	39.64
23.73	54	39.65
23.74	47	39.66
23.75	32	39.67
23.76	36	39.68
23.77	37	39.69
23.78	44	39.7
23.79	46	39.7
23.8	44	39.71
23.81	39	39.72
23.82	48	39.73
23.83	31	39.74
23.84	36	39.75
23.85	34	39.76
23.86	43	39.77
23.87	51	39.77
23.88	37	39.78
23.89	47	39.79
23.9	43	39.8
23.91	37	39.81
23.92	49	39.82
23.93	58	39.83
23.94	38	39.83
23.95	45	39.84
23.96	43	39.85
23.97	47	39.86
23.98	40	39.87
23.99	56	39.88
24	50	39.89
24.01	55	39.89
24.02	54	39.9
24.03	75	39.91
24.04	50	39.92
24.05	64	39.93
24.06	82	39.94
24.07	65	39.95
24.08	60	39.95
24.09	73	39.96
24.1	74	39.97
24.11	61	39.98
24.12	79	39.99
24.13	93	40
24.14	68	40.01
24.15	82	40.01
24.16	67	40.02
24.17	62	40.03
24.18	58	40.04
24.19	62	40.05
24.2	56	40.06
24.21	55	40.06
24.22	61	40.07
24.23	58	40.08
24.24	58	40.09
24.25	54	40.1
24.26	50	40.11
24.27	53	40.11
24.28	37	40.12
24.29	51	40.13
24.3	36	40.14
24.31	42	40.15
24.32	36	40.16
24.33	42	40.16
24.34	51	40.17
24.35	52	40.18
24.36	43	40.19
24.37	46	40.2
24.38	44	40.21
24.39	52	40.21
24.4	39	40.22
24.41	36	40.23
24.42	32	40.24
24.43	45	40.25
24.44	44	40.26
24.45	49	40.26
24.46	46	40.27
24.47	44	40.28
24.48	39	40.29
24.49	42	40.3
24.5	48	40.3
24.51	41	40.31
24.52	54	40.32
24.53	46	40.33
24.54	33	40.34
24.55	54	40.35
24.56	39	40.35
24.57	37	40.36
24.58	39	40.37
24.59	39	40.38
24.6	51	40.39
24.61	38	40.39
24.62	52	40.4
24.63	35	40.41
24.64	42	40.42
24.65	53	40.43
24.66	53	40.44
24.67	54	40.44
24.68	36	40.45
24.69	48	40.46
24.7	51	40.47
24.71	39	40.48
24.72	41	40.48
24.73	43	40.49
24.74	52	40.5
24.75	48	40.51
24.76	43	40.52
24.77	43	40.52
24.78	49	40.53
24.79	54	40.54
24.8	49	40.55
24.81	45	40.56
24.82	44	40.56
24.83	30	40.57
24.84	59	40.58
24.85	44	40.59
24.86	46	40.59
24.87	34	40.6
24.88	38	40.61
24.89	29	40.62
24.9	39	40.63
24.91	44	40.63
24.92	43	40.64
24.93	49	40.65
24.94	46	40.66
24.95	39	40.67
24.96	49	40.67
24.97	55	40.68
24.98	51	40.69
24.99	48	40.7
25	42	40.7
25.01	39	40.71
25.02	46	40.72
25.03	58	40.73
25.04	54	40.74
25.05	59	40.74
25.06	65	40.75
25.07	61	40.76
25.08	48	40.77
25.09	74	40.77
25.1	65	40.78
25.11	66	40.79
25.12	70	40.8
25.13	68	40.81
25.14	68	40.81
25.15	63	40.82
25.16	56	40.83
25.17	72	40.84
25.18	51	40.84
25.19	50	40.85
25.2	64	40.86
25.21	58	40.87
25.22	60	40.87
25.23	66	40.88
25.24	63	40.89
25.25	75	40.9
25.26	77	40.9
25.27	96	40.91
25.28	92	40.92
25.29	119	40.93
25.3	114	40.93
25.31	132	40.94
25.32	157	40.95
25.33	186	40.96
25.34	189	40.96
25.35	233	40.97
25.36	222	40.98
25.37	283	40.99
25.38	277	40.99
25.39	233	41
25.4	271	41.01
25.41	229	41.02
25.42	220	41.02
25.43	180	41.03
25.44	191	41.04
25.45	138	41.05
25.46	145	41.05
25.47	122	41.06
25.48	111	41.07
25.49	86	41.08
25.5	76	41.08
25.51	62	41.09
25.52	67	41.1
25.53	57	41.1
25.54	44	41.11
25.55	50	41.12
25.56	51	41.13
25.57	42	41.13
25.58	49	41.14
25.59	46	41.15
25.6	47	41.16
25.61	45	41.16
25.62	44	41.17
25.63	43	41.18
25.64	49	41.18
25.65	42	41.19
25.66	56	41.2
25.67	56	41.21
25.68	44	41.21
25.69	48	41.22
25.7	37	41.23
25.71	55	41.23
25.72	42	41.24
25.73	48	41.25
25.74	46	41.26
25.75	50	41.26
25.76	41	41.27
25.77	58	41.28
25.78	51	41.28
25.79	52	41.29
25.8	59	41.3
25.81	56	41.31
25.82	48	41.31
25.83	41	41.32
25.84	40	41.33
25.85	44	41.33
25.86	50	41.34
25.87	46	41.35
25.88	49	41.35
25.89	30	41.36
25.9	55	41.37
25.91	36	41.38
25.92	45	41.38
25.93	39	41.39
25.94	49	41.4
25.95	42	41.4
25.96	57	41.41
25.97	46	41.42
25.98	55	41.42
25.99	34	41.43
26	49	41.44
26.01	43	41.44
26.02	37	41.45
26.03	46	41.46
26.04	45	41.46
26.05	44	41.47
26.06	55	41.48
26.07	41	41.49
26.08	35	41.49
26.09	37	41.5
26.1	44	41.51
26.11	41	41.51
26.12	38	41.52
26.13	50	41.53
26.14	57	41.53
26.15	37	41.54
26.16	47	41.55
26.17	45	41.55
26.18	42	41.56
26.19	55	41.57
26.2	41	41.57
26.21	63	41.58
26.22	56	41.59
26.23	58	41.59
26.24	50	41.6
26.25	63	41.61
26.26	78	41.61
26.27	59	41.62
26.28	84	41.63
26.29	79	41.63
26.3	86	41.64
26.31	77	41.64
26.32	81	41.65
26.33	88	41.66
26.34	90	41.66
26.35	91	41.67
26.36	74	41.68
26.37	79	41.68
26.38	88	41.69
26.39	75	41.7
26.4	78	41.7
26.41	99	41.71
26.42	93	41.72
26.43	69	41.72
26.44	85	41.73
26.45	70	41.74
26.46	65	41.74
26.47	80	41.75
26.48	60	41.75
26.49	68	41.76
26.5	68	41.77
26.51	43	41.77
26.52	67	41.78
26.53	45	41.79
26.54	33	41.79
26.55	54	41.8
26.56	44	41.8
26.57	49	41.81
26.58	38	41.82
26.59	42	41.82
26.6	57	41.83
26.61	54	41.84
26.62	55	41.84
26.63	45	41.85
26.64	62	41.85
26.65	55	41.86
26.66	55	41.87
26.67	44	41.87
26.68	49	41.88
26.69	47	41.89
26.7	50	41.89
26.71	47	41.9
26.72	49	41.9
26.73	42	41.91
26.74	44	41.92
26.75	36	41.92
26.76	32	41.93
26.77	49	41.93
26.78	38	41.94
26.79	53	41.95
26.8	52	41.95
26.81	44	41.96
26.82	47	41.96
26.83	50	41.97
26.84	54	41.98
26.85	41	41.98
26.86	46	41.99
26.87	41	41.99
26.88	41	42
26.89	32	42.01
26.9	46	42.01
26.91	45	42.02
26.92	49	42.02
26.93	37	42.03
26.94	40	42.04
26.95	43	42.04
26.96	33	42.05
26.97	46	42.05
26.98	34	42.06
26.99	52	42.06
27	44	42.07
27.01	46	42.08
27.02	39	42.08
27.03	46	42.09
27.04	49	42.09
27.05	43	42.1
27.06	42	42.1
27.07	40	42.11
27.08	42	42.12
27.09	43	42.12
27.1	53	42.13
27.11	45	42.13
27.12	50	42.14
27.13	30	42.14
27.14	44	42.15
27.15	55	42.16
27.16	49	42.16
27.17	49	42.17
27.18	60	42.17
27.19	45	42.18
27.2	51	42.18
27.21	55	42.19
27.22	51	42.19
27.23	49	42.2
27.24	50	42.21
27.25	50	42.21
27.26	57	42.22
27.27	65	42.22
27.28	44	42.23
27.29	71	42.23
27.3	58	42.24
27.31	53	42.24
27.32	63	42.25
27.33	74	42.26
27.34	86	42.26
27.35	87	42.27
27.36	64	42.27
27.37	91	42.28
27.38	102	42.28
27.39	109	42.29
27.4	105	42.29
27.41	134	42.3
27.42	141	42.3
27.43	140	42.31
27.44	209	42.31
27.45	178	42.32
27.46	238	42.33
27.47	198	42.33
27.48	218	42.34
27.49	230	42.34
27.5	182	42.35
27.51	176	42.35
27.52	158	42.36
27.53	143	42.36
27.54	133	42.37
27.55	130	42.37
27.56	134	42.38
27.57	100	42.38
27.58	84	42.39
27.59	82	42.39
27.6	64	42.4
27.61	62	42.4
27.62	61	42.41
27.63	54	42.41
27.64	62	42.42
27.65	53	42.42
27.66	53	42.43
27.67	48	42.43
27.68	47	42.44
27.69	45	42.44
27.7	61	42.45
27.71	57	42.45
27.72	54	42.46
27.73	46	42.46
27.74	43	42.47
27.75	57	42.47
27.76	51	42.48
27.77	52	42.48
27.78	49	42.49
27.79	38	42.49
27.8	61	42.5
27.81	53	42.5
27.82	40	42.51
27.83	55	42.51
27.84	70	42.52
27.85	53	42.52
27.86	49	42.53
27.87	51	42.53
27.88	57	42.54
27.89	54	42.54
27.9	45	42.55
27.91	48	42.55
27.92	28	42.56
27.93	42	42.56
27.94	54	42.57
27.95	45	42.57
27.96	48	42.58
27.97	43	42.58
27.98	46	42.59
27.99	42	42.59
28	62	42.59
28.01	60	42.6
28.02	37	42.6
28.03	37	42.61
28.04	69	42.61
28.05	45	42.62
28.06	50	42.62
28.07	40	42.63
28.08	42	42.63
28.09	46	42.64
28.1	55	42.64
28.11	36	42.65
28.12	46	42.65
28.13	42	42.65
28.14	39	42.66
28.15	44	42.66
28.16	46	42.67
28.17	48	42.67
28.18	58	42.68
28.19	55	42.68
28.2	53	42.69
28.21	43	42.69
28.22	40	42.7
28.23	51	42.7
28.24	44	42.7
28.25	48	42.71
28.26	48	42.71
28.27	54	42.72
28.28	52	42.72
28.29	59	42.73
28.3	53	42.73
28.31	43	42.73
28.32	52	42.74
28.33	55	42.74
28.34	52	42.75
28.35	54	42.75
28.36	58	42.76
28.37	56	42.76
28.38	74	42.76
28.39	76	42.77
28.4	75	42.77
28.41	75	42.78
28.42	96	42.78
28.43	90	42.79
28.44	108	42.79
28.45	112	42.79
28.46	141	42.8
28.47	158	42.8
28.48	140	42.81
28.49	206	42.81
28.5	245	42.82
28.51	289	42.82
28.52	358	42.82
28.53	385	42.83
28.54	457	42.83
28.55	499	42.84
28.56	470	42.84
28.57	481	42.84
28.58	426	42.85
28.59	392	42.85
28.6	404	42.86
28.61	339	42.86
28.62	323	42.86
28.63	273	42.87
28.64	228	42.87
28.65	210	42.88
28.66	182	42.88
28.67	150	42.88
28.68	124	42.89
28.69	105	42.89
28.7	98	42.9
28.71	66	42.9
28.72	52	42.9
28.73	58	42.91
28.74	62	42.91
28.75	52	42.92
28.76	65	42.92
28.77	60	42.92
28.78	71	42.93
28.79	56	42.93
28.8	72	42.93
28.81	69	42.94
28.82	69	42.94
28.83	75	42.95
28.84	98	42.95
28.85	92	42.95
28.86	116	42.96
28.87	117	42.96
28.88	129	42.96
28.89	151	42.97
28.9	109	42.97
28.91	122	42.98
28.92	128	42.98
28.93	103	42.98
28.94	107	42.99
28.95	110	42.99
28.96	91	42.99
28.97	95	43
28.98	113	43
28.99	77	43
29	74	43.01
29.01	63	43.01
29.02	59	43.02
29.03	59	43.02
29.04	48	43.02
29.05	39	43.03
29.06	34	43.03
29.07	61	43.03
29.08	47	43.04
29.09	53	43.04
29.1	52	43.04
29.11	52	43.05
29.12	50	43.05
29.13	48	43.05
29.14	42	43.06
29.15	60	43.06
29.16	62	43.06
29.17	49	43.07
29.18	33	43.07
29.19	55	43.07
29.2	48	43.08
29.21	65	43.08
29.22	54	43.08
29.23	67	43.09
29.24	56	43.09
29.25	56	43.09
29.26	66	43.1
29.27	56	43.1
29.28	51	43.1
29.29	64	43.11
29.3	59	43.11
29.31	62	43.11
29.32	64	43.12
29.33	64	43.12
29.34	67	43.12
29.35	58	43.13
29.36	62	43.13
29.37	61	43.13
29.38	55	43.14
29.39	42	43.14
29.4	56	43.14
29.41	54	43.15
29.42	58	43.15
29.43	38	43.15
29.44	53	43.16
29.45	49	43.16
29.46	55	43.16
29.47	54	43.16
29.48	53	43.17
29.49	38	43.17
29.5	41	43.17
29.51	41	43.18
29.52	53	43.18
29.53	55	43.18
29.54	57	43.19
29.55	66	43.19
29.56	53	43.19
29.57	54	43.19
29.58	64	43.2
29.59	49	43.2
29.6	53	43.2
29.61	55	43.21
29.62	48	43.21
29.63	52	43.21
29.64	47	43.22
29.65	43	43.22
29.66	43	43.22
29.67	48	43.22
29.68	55	43.23
29.69	53	43.23
29.7	60	43.23
29.71	48	43.24
29.72	46	43.24
29.73	47	43.24
29.74	62	43.24
29.75	42	43.25
29.76	44	43.25
29.77	51	43.25
29.78	58	43.25
29.79	44	43.26
29.8	54	43.26
29.81	42	43.26
29.82	51	43.27
29.83	53	43.27
29.84	47	43.27
29.85	57	43.27
29.86	39	43.28
29.87	51	43.28
29.88	52	43.28
29.89	62	43.28
29.9	50	43.29
29.91	60	43.29
29.92	47	43.29
29.93	66	43.29
29.94	60	43.3
29.95	53	43.3
29.96	64	43.3
29.97	42	43.3
29.98	63	43.31
29.99	65	43.31
30	51	43.31
30.01	67	43.32
30.02	62	43.32
30.03	54	43.32
30.04	73	43.32
30.05	60	43.33
30.06	68	43.33
30.07	92	43.33
30.08	83	43.33
30.09	77	43.33
30.1	88	43.34
30.11	128	43.34
30.12	129	43.34
30.13	111	43.34
30.14	146	43.35
30.15	196	43.35
30.16	209	43.35
30.17	230	43.35
30.18	273	43.36
30.19	339	43.36
30.2	406	43.36
30.21	475	43.36
30.22	438	43.37
30.23	472	43.37
30.24	480	43.37
30.25	464	43.37
30.26	471	43.37
30.27	464	43.38
30.28	464	43.38
30.29	487	43.38
30.3	518	43.38
30.31	504	43.39
30.32	500	43.39
30.33	468	43.39
30.34	411	43.39
30.35	375	43.39
30.36	343	43.4
30.37	291	43.4
30.38	275	43.4
30.39	226	43.4
30.4	223	43.4
30.41	220	43.41
30.42	192	43.41
30.43	169	43.41
30.44	175	43.41
30.45	141	43.42
30.46	127	43.42
30.47	114	43.42
30.48	106	43.42
30.49	111	43.42
30.5	131	43.43
30.51	124	43.43
30.52	164	43.43
30.53	142	43.43
30.54	186	43.43
30.55	156	43.44
30.56	220	43.44
30.57	247	43.44
30.58	293	43.44
30.59	351	43.44
30.6	434	43.44
30.61	514	43.45
30.62	569	43.45
30.63	571	43.45
30.64	652	43.45
30.65	649	43.45
30.66	611	43.46
30.67	570	43.46
30.68	481	43.46
30.69	448	43.46
30.7	377	43.46
30.71	373	43.47
30.72	358	43.47
30.73	338	43.47
30.74	279	43.47
30.75	251	43.47
30.76	204	43.47
30.77	175	43.48
30.78	119	43.48
30.79	105	43.48
30.8	98	43.48
30.81	97	43.48
30.82	80	43.48
30.83	103	43.49
30.84	84	43.49
30.85	103	43.49
30.86	118	43.49
30.87	142	43.49
30.88	121	43.49
30.89	149	43.5
30.9	141	43.5
30.91	176	43.5
30.92	139	43.5
30.93	153	43.5
30.94	137	43.5
30.95	133	43.51
30.96	105	43.51
30.97	110	43.51
30.98	104	43.51
30.99	105	43.51
31	97	43.51
31.01	94	43.51
31.02	75	43.52
31.03	69	43.52
31.04	60	43.52
31.05	64	43.52
31.06	55	43.52
31.07	49	43.52
31.08	61	43.53
31.09	56	43.53
31.1	52	43.53
31.11	57	43.53
31.12	61	43.53
31.13	61	43.53
31.14	44	43.53
31.15	46	43.53
31.16	60	43.54
31.17	50	43.54
31.18	53	43.54
31.19	57	43.54
31.2	39	43.54
31.21	53	43.54
31.22	51	43.54
31.23	49	43.55
31.24	45	43.55
31.25	48	43.55
31.26	51	43.55
31.27	52	43.55
31.28	46	43.55
31.29	48	43.55
31.3	56	43.55
31.31	55	43.56
31.32	54	43.56
31.33	48	43.56
31.34	49	43.56
31.35	54	43.56
31.36	55	43.56
31.37	61	43.56
31.38	47	43.56
31.39	57	43.57
31.4	41	43.57
31.41	54	43.57
31.42	55	43.57
31.43	63	43.57
31.44	60	43.57
31.45	58	43.57
31.46	50	43.57
31.47	66	43.57
31.48	53	43.58
31.49	53	43.58
31.5	54	43.58
31.51	49	43.58
31.52	46	43.58
31.53	46	43.58
31.54	53	43.58
31.55	46	43.58
31.56	62	43.58
31.57	54	43.58
31.58	62	43.59
31.59	71	43.59
31.6	57	43.59
31.61	71	43.59
31.62	62	43.59
31.63	55	43.59
31.64	50	43.59
31.65	41	43.59
31.66	53	43.59
31.67	57	43.59
31.68	48	43.59
31.69	62	43.6
31.7	54	43.6
31.71	53	43.6
31.72	54	43.6
31.73	59	43.6
31.74	49	43.6
31.75	58	43.6
31.76	54	43.6
31.77	50	43.6
31.78	52	43.6
31.79	34	43.6
31.8	54	43.6
31.81	50	43.61
31.82	61	43.61
31.83	59	43.61
31.84	41	43.61
31.85	45	43.61
31.86	44	43.61
31.87	56	43.61
31.88	42	43.61
31.89	42	43.61
31.9	49	43.61
31.91	53	43.61
31.92	42	43.61
31.93	49	43.61
31.94	43	43.61
31.95	34	43.62
31.96	55	43.62
31.97	38	43.62
31.98	46	43.62
31.99	47	43.62
32	37	43.62
32.01	45	43.62
32.02	51	43.62
32.03	51	43.62
32.04	36	43.62
32.05	51	43.62
32.06	34	43.62
32.07	38	43.62
32.08	46	43.62
32.09	40	43.62
32.1	61	43.62
32.11	54	43.62
32.12	42	43.62
32.13	51	43.63
32.14	45	43.63
32.15	50	43.63
32.16	44	43.63
32.17	47	43.63
32.18	58	43.63
32.19	64	43.63
32.2	49	43.63
32.21	45	43.63
32.22	58	43.63
32.23	54	43.63
32.24	35	43.63
32.25	31	43.63
32.26	54	43.63
32.27	59	43.63
32.28	39	43.63
32.29	45	43.63
32.3	37	43.63
32.31	44	43.63
32.32	36	43.63
32.33	46	43.63
32.34	45	43.63
32.35	57	43.63
32.36	46	43.63
32.37	58	43.63
32.38	50	43.64
32.39	47	43.64
32.4	52	43.64
32.41	33	43.64
32.42	59	43.64
32.43	46	43.64
32.44	57	43.64
32.45	41	43.64
32.46	44	43.64
32.47	40	43.64
32.48	51	43.64
32.49	53	43.64
32.5	53	43.64
32.51	70	43.64
32.52	71	43.64
32.53	64	43.64
32.54	54	43.64
32.55	78	43.64
32.56	63	43.64
32.57	71	43.64
32.58	61	43.64
32.59	65	43.64
32.6	56	43.64
32.61	64	43.64
32.62	67	43.64
32.63	57	43.64
32.64	65	43.64
32.65	55	43.64
32.66	62	43.64
32.67	49	43.64
32.68	58	43.64
32.69	48	43.64
32.7	54	43.64
32.71	46	43.64
32.72	60	43.64
32.73	48	43.64
32.74	38	43.64
32.75	51	43.64
32.76	52	43.64
32.77	43	43.64
32.78	44	43.64
32.79	48	43.64
32.8	41	43.64
32.81	45	43.64
32.82	53	43.64
32.83	49	43.64
32.84	46	43.64
32.85	33	43.64
32.86	43	43.64
32.87	43	43.64
32.88	46	43.64
32.89	45	43.64
32.9	59	43.64
32.91	53	43.64
32.92	54	43.64
32.93	54	43.64
32.94	57	43.64
32.95	42	43.64
32.96	36	43.64
32.97	42	43.64
32.98	48	43.64
32.99	39	43.64
33	49	43.64
33.01	56	43.64
33.02	46	43.64
33.03	42	43.64
33.04	53	43.64
33.05	43	43.64
33.06	36	43.64
33.07	51	43.64
33.08	43	43.64
33.09	48	43.64
33.1	41	43.64
33.11	45	43.64
33.12	47	43.63
33.13	44	43.63
33.14	42	43.63
33.15	50	43.63
33.16	52	43.63
33.17	56	43.63
33.18	63	43.63
33.19	54	43.63
33.2	56	43.63
33.21	58	43.63
33.22	48	43.63
33.23	55	43.63
33.24	55	43.63
33.25	63	43.63
33.26	54	43.63
33.27	60	43.63
33.28	31	43.63
33.29	46	43.63
33.3	54	43.63
33.31	46	43.63
33.32	66	43.63
33.33	59	43.63
33.34	47	43.63
33.35	52	43.63
33.36	64	43.63
33.37	59	43.63
33.38	50	43.63
33.39	51	43.62
33.4	51	43.62
33.41	49	43.62
33.42	58	43.62
33.43	39	43.62
33.44	62	43.62
33.45	66	43.62
33.46	56	43.62
33.47	60	43.62
33.48	53	43.62
33.49	76	43.62
33.5	62	43.62
33.51	64	43.62
33.52	58	43.62
33.53	56	43.62
33.54	54	43.62
33.55	76	43.62
33.56	76	43.62
33.57	70	43.61
33.58	78	43.61
33.59	105	43.61
33.6	100	43.61
33.61	105	43.61
33.62	109	43.61
33.63	121	43.61
33.64	93	43.61
33.65	90	43.61
33.66	81	43.61
33.67	71	43.61
33.68	56	43.61
33.69	82	43.61
33.7	65	43.61
33.71	76	43.61
33.72	83	43.61
33.73	73	43.6
33.74	47	43.6
33.75	57	43.6
33.76	55	43.6
33.77	57	43.6
33.78	40	43.6
33.79	47	43.6
33.8	50	43.6
33.81	45	43.6
33.82	54	43.6
33.83	43	43.6
33.84	50	43.6
33.85	57	43.6
33.86	45	43.59
33.87	45	43.59
33.88	50	43.59
33.89	50	43.59
33.9	60	43.59
33.91	45	43.59
33.92	42	43.59
33.93	67	43.59
33.94	59	43.59
33.95	50	43.59
33.96	59	43.59
33.97	51	43.59
33.98	59	43.58
33.99	50	43.58
34	83	43.58
34.01	68	43.58
34.02	88	43.58
34.03	94	43.58
34.04	100	43.58
34.05	96	43.58
34.06	82	43.58
34.07	140	43.58
34.08	147	43.58
34.09	125	43.57
34.1	139	43.57
34.11	159	43.57
34.12	152	43.57
34.13	121	43.57
34.14	103	43.57
34.15	93	43.57
34.16	133	43.57
34.17	131	43.57
34.18	119	43.57
34.19	114	43.57
34.2	118	43.56
34.21	94	43.56
34.22	130	43.56
34.23	116	43.56
34.24	129	43.56
34.25	140	43.56
34.26	134	43.56
34.27	168	43.56
34.28	143	43.56
34.29	157	43.56
34.3	178	43.55
34.31	163	43.55
34.32	172	43.55
34.33	148	43.55
34.34	142	43.55
34.35	147	43.55
34.36	166	43.55
34.37	159	43.55
34.38	129	43.55
34.39	149	43.54
34.4	144	43.54
34.41	143	43.54
34.42	155	43.54
34.43	176	43.54
34.44	161	43.54
34.45	161	43.54
34.46	136	43.54
34.47	160	43.54
34.48	149	43.53
34.49	158	43.53
34.5	147	43.53
34.51	145	43.53
34.52	121	43.53
34.53	151	43.53
34.54	117	43.53
34.55	94	43.53
34.56	104	43.52
34.57	98	43.52
34.58	95	43.52
34.59	92	43.52
34.6	69	43.52
34.61	78	43.52
34.62	65	43.52
34.63	66	43.52
34.64	50	43.51
34.65	62	43.51
34.66	52	43.51
34.67	50	43.51
34.68	59	43.51
34.69	43	43.51
34.7	50	43.51
34.71	47	43.51
34.72	47	43.5
34.73	58	43.5
34.74	59	43.5
34.75	39	43.5
34.76	44	43.5
34.77	53	43.5
34.78	49	43.5
34.79	50	43.5
34.8	27	43.49
34.81	44	43.49
34.82	39	43.49
34.83	56	43.49
34.84	43	43.49
34.85	53	43.49
34.86	50	43.49
34.87	46	43.48
34.88	31	43.48
34.89	48	43.48
34.9	41	43.48
34.91	38	43.48
34.92	53	43.48
34.93	49	43.48
34.94	41	43.47
34.95	46	43.47
34.96	44	43.47
34.97	36	43.47
34.98	44	43.47
34.99	55	43.47
35	43	43.47
35.01	38	43.46
35.02	45	43.46
35.03	48	43.46
35.04	50	43.46
35.05	44	43.46
35.06	35	43.46
35.07	47	43.46
35.08	57	43.45
35.09	58	43.45
35.1	51	43.45
35.11	48	43.45
35.12	54	43.45
35.13	60	43.45
35.14	42	43.45
35.15	47	43.44
35.16	51	43.44
35.17	49	43.44
35.18	64	43.44
35.19	45	43.44
35.2	50	43.44
35.21	56	43.44
35.22	60	43.43
35.23	61	43.43
35.24	47	43.43
35.25	52	43.43
35.26	58	43.43
35.27	59	43.43
35.28	39	43.42
35.29	50	43.42
35.3	48	43.42
35.31	46	43.42
35.32	45	43.42
35.33	44	43.42
35.34	50	43.41
35.35	43	43.41
35.36	50	43.41
35.37	42	43.41
35.38	42	43.41
35.39	42	43.41
35.4	45	43.4
35.41	48	43.4
35.42	47	43.4
35.43	45	43.4
35.44	56	43.4
35.45	45	43.4
35.46	47	43.4
35.47	43	43.39
35.48	43	43.39
35.49	45	43.39
35.5	40	43.39
35.51	57	43.39
35.52	44	43.39
35.53	33	43.38
35.54	39	43.38
35.55	46	43.38
35.56	47	43.38
35.57	40	43.38
35.58	38	43.37
35.59	39	43.37
35.6	31	43.37
35.61	55	43.37
35.62	51	43.37
35.63	46	43.37
35.64	44	43.36
35.65	44	43.36
35.66	33	43.36
35.67	44	43.36
35.68	46	43.36
35.69	41	43.36
35.7	45	43.35
35.71	41	43.35
35.72	52	43.35
35.73	33	43.35
35.74	39	43.35
35.75	46	43.35
35.76	38	43.34
35.77	34	43.34
35.78	39	43.34
35.79	40	43.34
35.8	44	43.34
35.81	51	43.33
35.82	45	43.33
35.83	41	43.33
35.84	46	43.33
35.85	60	43.33
35.86	38	43.33
35.87	36	43.32
35.88	43	43.32
35.89	48	43.32
35.9	37	43.32
35.91	48	43.32
35.92	34	43.31
35.93	48	43.31
35.94	44	43.31
35.95	46	43.31
35.96	45	43.31
35.97	57	43.31
35.98	51	43.3
35.99	41	43.3
36	46	43.3
36.01	56	43.3
36.02	45	43.3
36.03	42	43.29
36.04	45	43.29
36.05	33	43.29
36.06	55	43.29
36.07	39	43.29
36.08	42	43.28
36.09	30	43.28
36.1	44	43.28
36.11	53	43.28
36.12	49	43.28
36.13	44	43.27
36.14	38	43.27
36.15	55	43.27
36.16	48	43.27
36.17	43	43.27
36.18	43	43.27
36.19	45	43.26
36.2	46	43.26
36.21	40	43.26
36.22	49	43.26
36.23	27	43.26
36.24	45	43.25
36.25	46	43.25
36.26	49	43.25
36.27	44	43.25
36.28	45	43.25
36.29	41	43.24
36.3	52	43.24
36.31	37	43.24
36.32	55	43.24
36.33	48	43.24
36.34	42	43.23
36.35	51	43.23
36.36	42	43.23
36.37	49	43.23
36.38	31	43.23
36.39	46	43.22
36.4	50	43.22
36.41	60	43.22
36.42	48	43.22
36.43	43	43.22
36.44	46	43.21
36.45	50	43.21
36.46	45	43.21
36.47	41	43.21
36.48	43	43.21
36.49	36	43.2
36.5	53	43.2
36.51	46	43.2
36.52	49	43.2
36.53	41	43.2
36.54	47	43.19
36.55	53	43.19
36.56	51	43.19
36.57	53	43.19
36.58	58	43.18
36.59	59	43.18
36.6	57	43.18
36.61	49	43.18
36.62	45	43.18
36.63	61	43.17
36.64	56	43.17
36.65	48	43.17
36.66	51	43.17
36.67	41	43.17
36.68	56	43.16
36.69	46	43.16
36.7	46	43.16
36.71	54	43.16
36.72	54	43.16
36.73	63	43.15
36.74	50	43.15
36.75	49	43.15
36.76	39	43.15
36.77	43	43.14
36.78	39	43.14
36.79	53	43.14
36.8	37	43.14
36.81	40	43.14
36.82	49	43.13
36.83	43	43.13
36.84	53	43.13
36.85	50	43.13
36.86	44	43.13
36.87	51	43.12
36.88	53	43.12
36.89	42	43.12
36.9	40	43.12
36.91	43	43.11
36.92	39	43.11
36.93	56	43.11
36.94	43	43.11
36.95	36	43.11
36.96	36	43.1
36.97	44	43.1
36.98	50	43.1
36.99	50	43.1
37	48	43.1
37.01	41	43.09
37.02	37	43.09
37.03	53	43.09
37.04	37	43.09
37.05	53	43.08
37.06	46	43.08
37.07	57	43.08
37.08	34	43.08
37.09	54	43.08
37.1	52	43.07
37.11	45	43.07
37.12	46	43.07
37.13	44	43.07
37.14	55	43.06
37.15	55	43.06
37.16	50	43.06
37.17	42	43.06
37.18	42	43.06
37.19	51	43.05
37.2	49	43.05
37.21	44	43.05
37.22	46	43.05
37.23	62	43.04
37.24	45	43.04
37.25	51	43.04
37.26	43	43.04
37.27	45	43.03
37.28	41	43.03
37.29	47	43.03
37.3	38	43.03
37.31	43	43.03
37.32	53	43.02
37.33	63	43.02
37.34	55	43.02
37.35	55	43.02
37.36	65	43.01
37.37	60	43.01
37.38	74	43.01
37.39	87	43.01
37.4	92	43.01
37.41	127	43
37.42	116	43
37.43	117	43
37.44	150	43
37.45	144	42.99
37.46	136	42.99
37.47	157	42.99
37.48	143	42.99
37.49	181	42.98
37.5	155	42.98
37.51	190	42.98
37.52	187	42.98
37.53	215	42.98
37.54	211	42.97
37.55	202	42.97
37.56	223	42.97
37.57	219	42.97
37.58	238	42.96
37.59	203	42.96
37.6	276	42.96
37.61	255	42.96
37.62	251	42.95
37.63	253	42.95
37.64	250	42.95
37.65	215	42.95
37.66	216	42.95
37.67	200	42.94
37.68	197	42.94
37.69	196	42.94
37.7	199	42.94
37.71	209	42.93
37.72	189	42.93
37.73	238	42.93
37.74	211	42.93
37.75	234	42.92
37.76	266	42.92
37.77	261	42.92
37.78	289	42.92
37.79	242	42.91
37.8	221	42.91
37.81	209	42.91
37.82	243	42.91
37.83	181	42.9
37.84	189	42.9
37.85	163	42.9
37.86	161	42.9
37.87	164	42.9
37.88	161	42.89
37.89	139	42.89
37.9	174	42.89
37.91	128	42.89
37.92	113	42.88
37.93	113	42.88
37.94	110	42.88
37.95	95	42.88
37.96	98	42.87
37.97	62	42.87
37.98	89	42.87
37.99	76	42.87
38	69	42.86
38.01	67	42.86
38.02	56	42.86
38.03	65	42.86
38.04	53	42.85
38.05	70	42.85
38.06	49	42.85
38.07	64	42.85
38.08	49	42.85
38.09	43	42.84
38.1	46	42.84
38.11	53	42.84
38.12	57	42.84
38.13	54	42.83
38.14	48	42.83
38.15	44	42.83
38.16	47	42.83
38.17	59	42.82
38.18	49	42.82
38.19	56	42.82
38.2	51	42.82
38.21	56	42.81
38.22	50	42.81
38.23	51	42.81
38.24	47	42.81
38.25	48	42.8
38.26	52	42.8
38.27	49	42.8
38.28	47	42.8
38.29	47	42.79
38.3	45	42.79
38.31	57	42.79
38.32	50	42.79
38.33	53	42.78
38.34	48	42.78
38.35	39	42.78
38.36	50	42.78
38.37	44	42.77
38.38	54	42.77
38.39	49	42.77
38.4	40	42.77
38.41	44	42.76
38.42	44	42.76
38.43	54	42.76
38.44	53	42.76
38.45	41	42.75
38.46	58	42.75
38.47	48	42.75
38.48	55	42.75
38.49	65	42.74
38.5	68	42.74
38.51	62	42.74
38.52	52	42.74
38.53	69	42.74
38.54	57	42.73
38.55	54	42.73
38.56	48	42.73
38.57	57	42.73
38.58	67	42.72
38.59	59	42.72
38.6	49	42.72
38.61	59	42.72
38.62	47	42.71
38.63	51	42.71
38.64	57	42.71
38.65	46	42.71
38.66	40	42.7
38.67	47	42.7
38.68	52	42.7
38.69	45	42.7
38.7	53	42.69
38.71	64	42.69
38.72	50	42.69
38.73	57	42.69
38.74	45	42.68
38.75	46	42.68
38.76	57	42.68
38.77	50	42.68
38.78	54	42.67
38.79	39	42.67
38.8	37	42.67
38.81	52	42.67
38.82	64	42.66
38.83	57	42.66
38.84	52	42.66
38.85	55	42.66
38.86	71	42.65
38.87	77	42.65
38.88	89	42.65
38.89	75	42.65
38.9	111	42.64
38.91	122	42.64
38.92	165	42.64
38.93	189	42.64
38.94	218	42.63
38.95	229	42.63
38.96	211	42.63
38.97	229	42.63
38.98	176	42.62
38.99	175	42.62
39	125	42.62
39.01	121	42.62
39.02	119	42.61
39.03	115	42.61
39.04	161	42.61
39.05	140	42.61
39.06	144	42.6
39.07	121	42.6
39.08	135	42.6
39.09	109	42.6
39.1	104	42.59
39.11	91	42.59
39.12	80	42.59
39.13	77	42.59
39.14	64	42.58
39.15	57	42.58
39.16	54	42.58
39.17	58	42.58
39.18	63	42.57
39.19	65	42.57
39.2	58	42.57
39.21	74	42.57
39.22	69	42.56
39.23	67	42.56
39.24	60	42.56
39.25	91	42.56
39.26	72	42.55
39.27	71	42.55
39.28	80	42.55
39.29	107	42.54
39.3	85	42.54
39.31	105	42.54
39.32	82	42.54
39.33	71	42.53
39.34	70	42.53
39.35	65	42.53
39.36	70	42.53
39.37	76	42.52
39.38	68	42.52
39.39	73	42.52
39.4	62	42.52
39.41	94	42.51
39.42	67	42.51
39.43	66	42.51
39.44	64	42.51
39.45	55	42.5
39.46	48	42.5
39.47	66	42.5
39.48	41	42.5
39.49	53	42.49
39.5	44	42.49
39.51	51	42.49
39.52	51	42.49
39.53	54	42.48
39.54	35	42.48
39.55	51	42.48
39.56	55	42.48
39.57	38	42.47
39.58	56	42.47
39.59	50	42.47
39.6	43	42.47
39.61	45	42.46
39.62	47	42.46
39.63	38	42.46
39.64	48	42.46
39.65	45	42.45
39.66	54	42.45
39.67	45	42.45
39.68	41	42.45
39.69	51	42.44
39.7	44	42.44
39.71	42	42.44
39.72	49	42.44
39.73	60	42.43
39.74	52	42.43
39.75	52	42.43
39.76	47	42.43
39.77	44	42.42
39.78	46	42.42
39.79	44	42.42
39.8	41	42.42
39.81	56	42.41
39.82	44	42.41
39.83	46	42.41
39.84	48	42.41
39.85	45	42.4
39.86	48	42.4
39.87	40	42.4
39.88	44	42.4
39.89	39	42.39
39.9	40	42.39
39.91	46	42.39
39.92	44	42.39
39.93	46	42.38
39.94	50	42.38
39.95	40	42.38
39.96	49	42.38
39.97	41	42.37
39.98	41	42.37
39.99	37	42.37
40	47	42.37
40.01	45	42.36
40.02	39	42.36
40.03	44	42.36
40.04	46	42.36
40.05	45	42.35
40.06	52	42.35
40.07	62	42.35
40.08	50	42.35
40.09	47	42.34
40.1	42	42.34
40.11	52	42.34
40.12	53	42.34
40.13	35	42.33
40.14	48	42.33
40.15	41	42.33
40.16	51	42.33
40.17	31	42.32
40.18	38	42.32
40.19	42	42.32
40.2	61	42.32
40.21	41	42.31
40.22	51	42.31
40.23	41	42.31
40.24	41	42.31
40.25	43	42.3
40.26	32	42.3
40.27	48	42.3
40.28	52	42.3
40.29	41	42.29
40.3	42	42.29
40.31	46	42.29
40.32	47	42.29
40.33	43	42.28
40.34	48	42.28
40.35	40	42.28
40.36	38	42.28
40.37	42	42.27
40.38	43	42.27
40.39	53	42.27
40.4	52	42.27
40.41	50	42.26
40.42	45	42.26
40.43	64	42.26
40.44	57	42.26
40.45	54	42.25
40.46	49	42.25
40.47	58	42.25
40.48	55	42.25
40.49	36	42.24
40.5	50	42.24
40.51	54	42.24
40.52	45	42.24
40.53	44	42.23
40.54	54	42.23
40.55	48	42.23
40.56	50	42.23
40.57	50	42.22
40.58	47	42.22
40.59	43	42.22
40.6	45	42.22
40.61	51	42.21
40.62	43	42.21
40.63	49	42.21
40.64	52	42.21
40.65	49	42.2
40.66	50	42.2
40.67	35	42.2
40.68	67	42.2
40.69	56	42.19
40.7	63	42.19
40.71	51	42.19
40.72	47	42.19
40.73	82	42.18
40.74	74	42.18
40.75	113	42.18
40.76	98	42.18
40.77	103	42.17
40.78	110	42.17
40.79	96	42.17
40.8	91	42.17
40.81	95	42.16
40.82	76	42.16
40.83	87	42.16
40.84	76	42.16
40.85	77	42.15
40.86	62	42.15
40.87	90	42.15
40.88	86	42.15
40.89	88	42.14
40.9	92	42.14
40.91	68	42.14
40.92	65	42.14
40.93	56	42.13
40.94	60	42.13
40.95	59	42.13
40.96	55	42.13
40.97	42	42.12
40.98	51	42.12
40.99	43	42.12
41	56	42.12
41.01	51	42.11
41.02	48	42.11
41.03	45	42.11
41.04	65	42.11
41.05	44	42.1
41.06	58	42.1
41.07	54	42.1
41.08	46	42.1
41.09	50	42.09
41.1	48	42.09
41.11	37	42.09
41.12	46	42.09
41.13	38	42.08
41.14	49	42.08
41.15	54	42.08
41.16	38	42.08
41.17	32	42.07
41.18	54	42.07
41.19	36	42.07
41.2	46	42.07
41.21	47	42.06
41.22	45	42.06
41.23	37	42.06
41.24	36	42.06
41.25	49	42.05
41.26	37	42.05
41.27	36	42.05
41.28	47	42.05
41.29	54	42.05
41.3	39	42.04
41.31	43	42.04
41.32	44	42.04
41.33	51	42.04
41.34	47	42.03
41.35	49	42.03
41.36	44	42.03
41.37	46	42.03
41.38	54	42.02
41.39	46	42.02
41.4	55	42.02
41.41	56	42.02
41.42	55	42.01
41.43	63	42.01
41.44	44	42.01
41.45	61	42.01
41.46	58	42
41.47	50	42
41.48	50	42
41.49	45	42
41.5	56	41.99
41.51	49	41.99
41.52	69	41.99
41.53	52	41.99
41.54	43	41.98
41.55	63	41.98
41.56	49	41.98
41.57	56	41.98
41.58	43	41.98
41.59	61	41.97
41.6	45	41.97
41.61	57	41.97
41.62	66	41.97
41.63	47	41.96
41.64	44	41.96
41.65	59	41.96
41.66	47	41.96
41.67	46	41.95
41.68	51	41.95
41.69	53	41.95
41.7	54	41.95
41.71	50	41.94
41.72	52	41.94
41.73	61	41.94
41.74	50	41.94
41.75	51	41.94
41.76	54	41.93
41.77	49	41.93
41.78	45	41.93
41.79	52	41.93
41.8	43	41.92
41.81	49	41.92
41.82	66	41.92
41.83	50	41.92
41.84	37	41.91
41.85	44	41.91
41.86	47	41.91
41.87	57	41.91
41.88	43	41.9
41.89	44	41.9
41.9	34	41.9
41.91	36	41.9
41.92	44	41.9
41.93	52	41.89
41.94	46	41.89
41.95	47	41.89
41.96	49	41.89
41.97	51	41.88
41.98	55	41.88
41.99	54	41.88
42	50	41.88
42.01	39	41.87
42.02	45	41.87
42.03	46	41.87
42.04	47	41.87
42.05	52	41.86
42.06	43	41.86
42.07	44	41.86
42.08	47	41.86
42.09	48	41.86
42.1	50	41.85
42.11	49	41.85
42.12	34	41.85
42.13	56	41.85
42.14	40	41.84
42.15	31	41.84
42.16	43	41.84
42.17	45	41.84
42.18	60	41.83
42.19	44	41.83
42.2	40	41.83
42.21	46	41.83
42.22	47	41.83
42.23	43	41.82
42.24	59	41.82
42.25	63	41.82
42.26	56	41.82
42.27	44	41.81
42.28	60	41.81
42.29	52	41.81
42.3	67	41.81
42.31	51	41.81
42.32	75	41.8
42.33	62	41.8
42.34	76	41.8
42.35	98	41.8
42.36	111	41.79
42.37	83	41.79
42.38	101	41.79
42.39	87	41.79
42.4	108	41.78
42.41	84	41.78
42.42	73	41.78
42.43	68	41.78
42.44	66	41.78
42.45	92	41.77
42.46	84	41.77
42.47	96	41.77
42.48	79	41.77
42.49	70	41.76
42.5	69	41.76
42.51	73	41.76
42.52	62	41.76
42.53	74	41.76
42.54	71	41.75
42.55	78	41.75
42.56	73	41.75
42.57	76	41.75
42.58	99	41.74
42.59	84	41.74
42.6	85	41.74
42.61	67	41.74
42.62	88	41.74
42.63	77	41.73
42.64	54	41.73
42.65	39	41.73
42.66	69	41.73
42.67	55	41.72
42.68	57	41.72
42.69	61	41.72
42.7	52	41.72
42.71	52	41.72
42.72	59	41.71
42.73	61	41.71
42.74	53	41.71
42.75	39	41.71
42.76	43	41.7
42.77	61	41.7
42.78	44	41.7
42.79	47	41.7
42.8	45	41.7
42.81	43	41.69
42.82	43	41.69
42.83	39	41.69
42.84	51	41.69
42.85	61	41.68
42.86	48	41.68
42.87	56	41.68
42.88	39	41.68
42.89	53	41.68
42.9	43	41.67
42.91	49	41.67
42.92	52	41.67
42.93	43	41.67
42.94	41	41.67
42.95	36	41.66
42.96	47	41.66
42.97	49	41.66
42.98	44	41.66
42.99	42	41.65
43	44	41.65
43.01	51	41.65
43.02	38	41.65
43.03	38	41.65
43.04	54	41.64
43.05	55	41.64
43.06	44	41.64
43.07	46	41.64
43.08	45	41.64
43.09	47	41.63
43.1	61	41.63
43.11	34	41.63
43.12	29	41.63
43.13	34	41.62
43.14	43	41.62
43.15	59	41.62
43.16	45	41.62
43.17	34	41.62
43.18	51	41.61
43.19	50	41.61
43.2	37	41.61
43.21	43	41.61
43.22	53	41.61
43.23	51	41.6
43.24	40	41.6
43.25	62	41.6
43.26	42	41.6
43.27	49	41.6
43.28	44	41.59
43.29	46	41.59
43.3	61	41.59
43.31	52	41.59
43.32	60	41.59
43.33	61	41.58
43.34	67	41.58
43.35	65	41.58
43.36	59	41.58
43.37	61	41.57
43.38	81	41.57
43.39	74	41.57
43.4	44	41.57
43.41	38	41.57
43.42	51	41.56
43.43	52	41.56
43.44	52	41.56
43.45	60	41.56
43.46	67	41.56
43.47	54	41.55
43.48	67	41.55
43.49	73	41.55
43.5	69	41.55
43.51	54	41.55
43.52	57	41.54
43.53	60	41.54
43.54	74	41.54
43.55	65	41.54
43.56	87	41.54
43.57	96	41.53
43.58	105	41.53
43.59	106	41.53
43.6	124	41.53
43.61	143	41.53
43.62	128	41.52
43.63	155	41.52
43.64	176	41.52
43.65	213	41.52
43.66	217	41.52
43.67	197	41.51
43.68	220	41.51
43.69	240	41.51
43.7	221	41.51
43.71	202	41.51
43.72	204	41.5
43.73	174	41.5
43.74	199	41.5
43.75	190	41.5
43.76	179	41.5
43.77	176	41.49
43.78	186	41.49
43.79	169	41.49
43.8	166	41.49
43.81	142	41.49
43.82	131	41.48
43.83	138	41.48
43.84	122	41.48
43.85	96	41.48
43.86	84	41.48
43.87	83	41.47
43.88	93	41.47
43.89	85	41.47
43.9	78	41.47
43.91	86	41.47
43.92	67	41.46
43.93	74	41.46
43.94	76	41.46
43.95	63	41.46
43.96	60	41.46
43.97	72	41.46
43.98	76	41.45
43.99	98	41.45
44	100	41.45
44.01	112	41.45
44.02	94	41.45
44.03	108	41.44
44.04	121	41.44
44.05	89	41.44
44.06	78	41.44
44.07	101	41.44
44.08	89	41.43
44.09	66	41.43
44.1	82	41.43
44.11	81	41.43
44.12	87	41.43
44.13	71	41.42
44.14	74	41.42
44.15	75	41.42
44.16	66	41.42
44.17	65	41.42
44.18	76	41.42
44.19	63	41.41
44.2	49	41.41
44.21	49	41.41
44.22	46	41.41
44.23	58	41.41
44.24	48	41.4
44.25	62	41.4
44.26	43	41.4
44.27	44	41.4
44.28	41	41.4
44.29	53	41.39
44.3	50	41.39
44.31	51	41.39
44.32	57	41.39
44.33	44	41.39
44.34	63	41.39
44.35	49	41.38
44.36	51	41.38
44.37	51	41.38
44.38	52	41.38
44.39	58	41.38
44.4	54	41.37
44.41	48	41.37
44.42	70	41.37
44.43	66	41.37
44.44	61	41.37
44.45	83	41.37
44.46	74	41.36
44.47	68	41.36
44.48	73	41.36
44.49	61	41.36
44.5	73	41.36
44.51	52	41.35
44.52	63	41.35
44.53	56	41.35
44.54	49	41.35
44.55	56	41.35
44.56	68	41.35
44.57	56	41.34
44.58	48	41.34
44.59	60	41.34
44.6	46	41.34
44.61	61	41.34
44.62	52	41.34
44.63	51	41.33
44.64	52	41.33
44.65	44	41.33
44.66	51	41.33
44.67	48	41.33
44.68	47	41.32
44.69	44	41.32
44.7	49	41.32
44.71	41	41.32
44.72	48	41.32
44.73	49	41.32
44.74	47	41.31
44.75	50	41.31
44.76	48	41.31
44.77	47	41.31
44.78	39	41.31
44.79	38	41.31
44.8	48	41.3
44.81	48	41.3
44.82	50	41.3
44.83	52	41.3
44.84	46	41.3
44.85	55	41.3
44.86	51	41.29
44.87	47	41.29
44.88	44	41.29
44.89	39	41.29
44.9	47	41.29
44.91	58	41.29
44.92	37	41.28
44.93	43	41.28
44.94	47	41.28
44.95	40	41.28
44.96	45	41.28
44.97	52	41.27
44.98	44	41.27
44.99	46	41.27
45	47	41.27
45.01	45	41.27
45.02	25	41.27
45.03	59	41.26
45.04	43	41.26
45.05	36	41.26
45.06	50	41.26
45.07	47	41.26
45.08	36	41.26
45.09	45	41.26
45.1	42	41.25
45.11	53	41.25
45.12	40	41.25
45.13	43	41.25
45.14	31	41.25
45.15	58	41.25
45.16	52	41.24
45.17	53	41.24
45.18	46	41.24
45.19	48	41.24
45.2	39	41.24
45.21	47	41.24
45.22	50	41.23
45.23	56	41.23
45.24	65	41.23
45.25	45	41.23
45.26	51	41.23
45.27	57	41.23
45.28	53	41.22
45.29	43	41.22
45.3	43	41.22
45.31	57	41.22
45.32	62	41.22
45.33	42	41.22
45.34	43	41.21
45.35	61	41.21
45.36	57	41.21
45.37	61	41.21
45.38	69	41.21
45.39	73	41.21
45.4	50	41.21
45.41	62	41.2
45.42	64	41.2
45.43	60	41.2
45.44	63	41.2
45.45	65	41.2
45.46	53	41.2
45.47	52	41.19
45.48	53	41.19
45.49	54	41.19
45.5	71	41.19
45.51	54	41.19
45.52	55	41.19
45.53	71	41.19
45.54	46	41.18
45.55	69	41.18
45.56	63	41.18
45.57	53	41.18
45.58	47	41.18
45.59	58	41.18
45.6	54	41.17
45.61	65	41.17
45.62	63	41.17
45.63	82	41.17
45.64	70	41.17
45.65	77	41.17
45.66	102	41.17
45.67	94	41.16
45.68	123	41.16
45.69	117	41.16
45.7	129	41.16
45.71	152	41.16
45.72	150	41.16
45.73	113	41.16
45.74	143	41.15
45.75	129	41.15
45.76	130	41.15
45.77	137	41.15
45.78	158	41.15
45.79	153	41.15
45.8	132	41.14
45.81	141	41.14
45.82	128	41.14
45.83	94	41.14
45.84	107	41.14
45.85	101	41.14
45.86	103	41.14
45.87	93	41.13
45.88	88	41.13
45.89	89	41.13
45.9	91	41.13
45.91	72	41.13
45.92	80	41.13
45.93	79	41.13
45.94	55	41.12
45.95	69	41.12
45.96	52	41.12
45.97	59	41.12
45.98	66	41.12
45.99	58	41.12
46	48	41.12
46.01	45	41.11
46.02	49	41.11
46.03	51	41.11
46.04	48	41.11
46.05	62	41.11
46.06	51	41.11
46.07	43	41.11
46.08	65	41.11
46.09	48	41.1
46.1	57	41.1
46.11	56	41.1
46.12	57	41.1
46.13	54	41.1
46.14	53	41.1
46.15	39	41.1
46.16	61	41.09
46.17	50	41.09
46.18	47	41.09
46.19	49	41.09
46.2	50	41.09
46.21	52	41.09
46.22	51	41.09
46.23	56	41.08
46.24	44	41.08
46.25	46	41.08
46.26	50	41.08
46.27	64	41.08
46.28	49	41.08
46.29	47	41.08
46.3	62	41.08
46.31	51	41.07
46.32	56	41.07
46.33	45	41.07
46.34	54	41.07
46.35	60	41.07
46.36	58	41.07
46.37	56	41.07
46.38	74	41.06
46.39	72	41.06
46.4	71	41.06
46.41	75	41.06
46.42	60	41.06
46.43	89	41.06
46.44	87	41.06
46.45	109	41.06
46.46	114	41.05
46.47	138	41.05
46.48	130	41.05
46.49	158	41.05
46.5	119	41.05
46.51	112	41.05
46.52	109	41.05
46.53	114	41.05
46.54	106	41.04
46.55	88	41.04
46.56	119	41.04
46.57	105	41.04
46.58	111	41.04
46.59	107	41.04
46.6	92	41.04
46.61	117	41.04
46.62	98	41.03
46.63	97	41.03
46.64	101	41.03
46.65	75	41.03
46.66	85	41.03
46.67	88	41.03
46.68	89	41.03
46.69	82	41.03
46.7	73	41.02
46.71	67	41.02
46.72	65	41.02
46.73	61	41.02
46.74	75	41.02
46.75	58	41.02
46.76	36	41.02
46.77	52	41.02
46.78	57	41.01
46.79	60	41.01
46.8	49	41.01
46.81	56	41.01
46.82	57	41.01
46.83	53	41.01
46.84	56	41.01
46.85	70	41.01
46.86	57	41.01
46.87	58	41
46.88	57	41
46.89	57	41
46.9	48	41
46.91	51	41
46.92	41	41
46.93	57	41
46.94	40	41
46.95	54	40.99
46.96	65	40.99
46.97	52	40.99
46.98	47	40.99
46.99	45	40.99
47	55	40.99
47.01	53	40.99
47.02	51	40.99
47.03	64	40.99
47.04	48	40.98
47.05	50	40.98
47.06	38	40.98
47.07	38	40.98
47.08	41	40.98
47.09	45	40.98
47.1	46	40.98
47.11	61	40.98
47.12	53	40.98
47.13	55	40.97
47.14	42	40.97
47.15	37	40.97
47.16	36	40.97
47.17	34	40.97
47.18	47	40.97
47.19	50	40.97
47.2	46	40.97
47.21	38	40.97
47.22	48	40.96
47.23	51	40.96
47.24	62	40.96
47.25	53	40.96
47.26	59	40.96
47.27	40	40.96
47.28	37	40.96
47.29	44	40.96
47.3	45	40.96
47.31	43	40.95
47.32	37	40.95
47.33	46	40.95
47.34	56	40.95
47.35	50	40.95
47.36	44	40.95
47.37	39	40.95
47.38	37	40.95
47.39	44	40.95
47.4	45	40.95
47.41	58	40.94
47.42	45	40.94
47.43	57	40.94
47.44	50	40.94
47.45	48	40.94
47.46	37	40.94
47.47	44	40.94
47.48	43	40.94
47.49	37	40.94
47.5	39	40.93
47.51	47	40.93
47.52	40	40.93
47.53	43	40.93
47.54	51	40.93
47.55	49	40.93
47.56	50	40.93
47.57	46	40.93
47.58	61	40.93
47.59	69	40.93
47.6	64	40.92
47.61	86	40.92
47.62	64	40.92
47.63	63	40.92
47.64	74	40.92
47.65	69	40.92
47.66	83	40.92
47.67	71	40.92
47.68	83	40.92
47.69	70	40.92
47.7	68	40.92
47.71	63	40.91
47.72	80	40.91
47.73	76	40.91
47.74	72	40.91
47.75	69	40.91
47.76	76	40.91
47.77	71	40.91
47.78	68	40.91
47.79	48	40.91
47.8	67	40.91
47.81	65	40.9
47.82	63	40.9
47.83	45	40.9
47.84	71	40.9
47.85	54	40.9
47.86	61	40.9
47.87	67	40.9
47.88	44	40.9
47.89	50	40.9
47.9	58	40.9
47.91	56	40.9
47.92	49	40.89
47.93	48	40.89
47.94	56	40.89
47.95	45	40.89
47.96	33	40.89
47.97	49	40.89
47.98	51	40.89
47.99	57	40.89
48	52	40.89
48.01	59	40.89
48.02	54	40.89
48.03	59	40.88
48.04	40	40.88
48.05	40	40.88
48.06	46	40.88
48.07	47	40.88
48.08	52	40.88
48.09	52	40.88
48.1	52	40.88
48.11	74	40.88
48.12	59	40.88
48.13	46	40.88
48.14	51	40.88
48.15	45	40.87
48.16	45	40.87
48.17	49	40.87
48.18	48	40.87
48.19	53	40.87
48.2	44	40.87
48.21	43	40.87
48.22	50	40.87
48.23	55	40.87
48.24	48	40.87
48.25	63	40.87
48.26	42	40.86
48.27	45	40.86
48.28	51	40.86
48.29	50	40.86
48.3	53	40.86
48.31	51	40.86
48.32	43	40.86
48.33	44	40.86
48.34	41	40.86
48.35	47	40.86
48.36	37	40.86
48.37	46	40.86
48.38	43	40.86
48.39	48	40.85
48.4	49	40.85
48.41	47	40.85
48.42	52	40.85
48.43	43	40.85
48.44	42	40.85
48.45	40	40.85
48.46	43	40.85
48.47	42	40.85
48.48	39	40.85
48.49	50	40.85
48.5	48	40.85
48.51	31	40.84
48.52	52	40.84
48.53	51	40.84
48.54	53	40.84
48.55	46	40.84
48.56	54	40.84
48.57	36	40.84
48.58	35	40.84
48.59	54	40.84
48.6	52	40.84
48.61	44	40.84
48.62	52	40.84
48.63	42	40.84
48.64	47	40.84
48.65	55	40.83
48.66	43	40.83
48.67	45	40.83
48.68	53	40.83
48.69	47	40.83
48.7	44	40.83
48.71	48	40.83
48.72	42	40.83
48.73	38	40.83
48.74	47	40.83
48.75	49	40.83
48.76	49	40.83
48.77	37	40.83
48.78	42	40.82
48.79	54	40.82
48.8	52	40.82
48.81	52	40.82
48.82	48	40.82
48.83	50	40.82
48.84	54	40.82
48.85	62	40.82
48.86	64	40.82
48.87	49	40.82
48.88	50	40.82
48.89	57	40.82
48.9	57	40.82
48.91	57	40.82
48.92	76	40.82
48.93	86	40.81
48.94	85	40.81
48.95	76	40.81
48.96	80	40.81
48.97	67	40.81
48.98	77	40.81
48.99	78	40.81
49	66	40.81
49.01	71	40.81
49.02	71	40.81
49.03	67	40.81
49.04	66	40.81
49.05	76	40.81
49.06	80	40.81
49.07	87	40.81
49.08	72	40.8
49.09	84	40.8
49.1	66	40.8
49.11	84	40.8
49.12	74	40.8
49.13	68	40.8
49.14	63	40.8
49.15	67	40.8
49.16	63	40.8
49.17	53	40.8
49.18	49	40.8
49.19	51	40.8
49.2	49	40.8
49.21	64	40.8
49.22	55	40.8
49.23	48	40.79
49.24	60	40.79
49.25	68	40.79
49.26	58	40.79
49.27	70	40.79
49.28	63	40.79
49.29	73	40.79
49.3	59	40.79
49.31	82	40.79
49.32	80	40.79
49.33	73	40.79
49.34	85	40.79
49.35	94	40.79
49.36	88	40.79
49.37	103	40.79
49.38	88	40.79
49.39	87	40.79
49.4	75	40.78
49.41	79	40.78
49.42	100	40.78
49.43	72	40.78
49.44	72	40.78
49.45	79	40.78
49.46	79	40.78
49.47	99	40.78
49.48	71	40.78
49.49	82	40.78
49.5	77	40.78
49.51	78	40.78
49.52	77	40.78
49.53	82	40.78
49.54	74	40.78
49.55	70	40.78
49.56	82	40.78
49.57	73	40.78
49.58	69	40.77
49.59	76	40.77
49.6	55	40.77
49.61	55	40.77
49.62	72	40.77
49.63	62	40.77
49.64	70	40.77
49.65	73	40.77
49.66	79	40.77
49.67	61	40.77
49.68	83	40.77
49.69	79	40.77
49.7	63	40.77
49.71	67	40.77
49.72	50	40.77
49.73	53	40.77
49.74	54	40.77
49.75	45	40.77
49.76	60	40.77
49.77	49	40.76
49.78	58	40.76
49.79	49	40.76
49.8	44	40.76
49.81	44	40.76
49.82	42	40.76
49.83	51	40.76
49.84	51	40.76
49.85	45	40.76
49.86	42	40.76
49.87	42	40.76
49.88	47	40.76
49.89	34	40.76
49.9	39	40.76
49.91	48	40.76
49.92	42	40.76
49.93	53	40.76
49.94	45	40.76
49.95	58	40.76
49.96	54	40.76
49.97	43	40.75
49.98	45	40.75
49.99	45	40.75
50	48	40.75
50.01	49	40.75
50.02	46	40.75
50.03	52	40.75
50.04	48	40.75
50.05	38	40.75
50.06	52	40.75
50.07	54	40.75
50.08	54	40.75
50.09	64	40.75
50.1	62	40.75
50.11	71	40.75
50.12	61	40.75
50.13	55	40.75
50.14	60	40.75
50.15	54	40.75
50.16	60	40.75
50.17	54	40.75
50.18	45	40.75
50.19	45	40.74
50.2	47	40.74
50.21	47	40.74
50.22	48	40.74
50.23	47	40.74
50.24	52	40.74
50.25	44	40.74
50.26	66	40.74
50.27	39	40.74
50.28	57	40.74
50.29	53	40.74
50.3	47	40.74
50.31	52	40.74
50.32	41	40.74
50.33	44	40.74
50.34	55	40.74
50.35	46	40.74
50.36	43	40.74
50.37	47	40.74
50.38	59	40.74
50.39	53	40.74
50.4	52	40.74
50.41	48	40.74
50.42	43	40.73
50.43	39	40.73
50.44	55	40.73
50.45	39	40.73
50.46	43	40.73
50.47	47	40.73
50.48	58	40.73
50.49	57	40.73
50.5	80	40.73
50.51	53	40.73
50.52	57	40.73
50.53	80	40.73
50.54	87	40.73
50.55	84	40.73
50.56	70	40.73
50.57	71	40.73
50.58	48	40.73
50.59	62	40.73
50.6	60	40.73
50.61	55	40.73
50.62	45	40.73
50.63	52	40.73
50.64	63	40.73
50.65	62	40.73
50.66	68	40.73
50.67	69	40.73
50.68	56	40.72
50.69	54	40.72
50.7	50	40.72
50.71	41	40.72
50.72	55	40.72
50.73	54	40.72
50.74	53	40.72
50.75	47	40.72
50.76	43	40.72
50.77	45	40.72
50.78	39	40.72
50.79	38	40.72
50.8	53	40.72
50.81	49	40.72
50.82	37	40.72
50.83	49	40.72
50.84	46	40.72
50.85	44	40.72
50.86	48	40.72
50.87	42	40.72
50.88	39	40.72
50.89	40	40.72
50.9	45	40.72
50.91	44	40.72
50.92	54	40.72
50.93	40	40.72
50.94	48	40.72
50.95	39	40.72
50.96	38	40.72
50.97	50	40.71
50.98	64	40.71
50.99	45	40.71
51	45	40.71
51.01	31	40.71
51.02	53	40.71
51.03	54	40.71
51.04	43	40.71
51.05	39	40.71
51.06	54	40.71
51.07	37	40.71
51.08	47	40.71
51.09	49	40.71
51.1	49	40.71
51.11	44	40.71
51.12	47	40.71
51.13	54	40.71
51.14	53	40.71
51.15	48	40.71
51.16	43	40.71
51.17	52	40.71
51.18	59	40.71
51.19	57	40.71
51.2	53	40.71
51.21	52	40.71
51.22	43	40.71
51.23	46	40.71
51.24	60	40.71
51.25	46	40.71
51.26	52	40.71
51.27	55	40.71
51.28	46	40.71
51.29	40	40.71
51.3	50	40.7
51.31	56	40.7
51.32	56	40.7
51.33	52	40.7
51.34	64	40.7
51.35	41	40.7
51.36	52	40.7
51.37	71	40.7
51.38	54	40.7
51.39	62	40.7
51.4	71	40.7
51.41	69	40.7
51.42	74	40.7
51.43	69	40.7
51.44	49	40.7
51.45	67	40.7
51.46	52	40.7
51.47	44	40.7
51.48	40	40.7
51.49	70	40.7
51.5	49	40.7
51.51	65	40.7
51.52	46	40.7
51.53	43	40.7
51.54	61	40.7
51.55	42	40.7
51.56	59	40.7
51.57	53	40.7
51.58	48	40.7
51.59	38	40.7
51.6	52	40.7
51.61	39	40.7
51.62	42	40.7
51.63	41	40.7
51.64	40	40.7
51.65	44	40.7
51.66	34	40.7
51.67	54	40.69
51.68	47	40.69
51.69	44	40.69
51.7	38	40.69
51.71	41	40.69
51.72	42	40.69
51.73	44	40.69
51.74	46	40.69
51.75	35	40.69
51.76	34	40.69
51.77	30	40.69
51.78	39	40.69
51.79	40	40.69
51.8	44	40.69
51.81	53	40.69
51.82	46	40.69
51.83	33	40.69
51.84	44	40.69
51.85	43	40.69
51.86	27	40.69
51.87	40	40.69
51.88	42	40.69
51.89	33	40.69
51.9	47	40.69
51.91	42	40.69
51.92	32	40.69
51.93	41	40.69
51.94	43	40.69
51.95	43	40.69
51.96	45	40.69
51.97	49	40.69
51.98	38	40.69
51.99	47	40.69
52	59	40.69
52.01	49	40.69
52.02	51	40.69
52.03	45	40.69
52.04	43	40.69
52.05	63	40.69
52.06	50	40.69
52.07	43	40.69
52.08	46	40.69
52.09	43	40.68
52.1	56	40.68
52.11	32	40.68
52.12	40	40.68
52.13	55	40.68
52.14	46	40.68
52.15	51	40.68
52.16	55	40.68
52.17	58	40.68
52.18	52	40.68
52.19	63	40.68
52.2	65	40.68
52.21	62	40.68
52.22	50	40.68
52.23	59	40.68
52.24	53	40.68
52.25	55	40.68
52.26	49	40.68
52.27	62	40.68
52.28	48	40.68
52.29	61	40.68
52.3	38	40.68
52.31	57	40.68
52.32	71	40.68
52.33	70	40.68
52.34	46	40.68
52.35	58	40.68
52.36	55	40.68
52.37	61	40.68
52.38	48	40.68
52.39	51	40.68
52.4	41	40.68
52.41	47	40.68
52.42	50	40.68
52.43	47	40.68
52.44	40	40.68
52.45	56	40.68
52.46	52	40.68
52.47	42	40.68
52.48	39	40.68
52.49	47	40.68
52.5	49	40.68
52.51	46	40.68
52.52	52	40.68
52.53	50	40.68
52.54	41	40.68
52.55	55	40.68
52.56	44	40.67
52.57	48	40.67
52.58	31	40.67
52.59	46	40.67
52.6	43	40.67
52.61	43	40.67
52.62	43	40.67
52.63	44	40.67
52.64	38	40.67
52.65	44	40.67
52.66	55	40.67
52.67	48	40.67
52.68	42	40.67
52.69	39	40.67
52.7	39	40.67
52.71	52	40.67
52.72	48	40.67
52.73	47	40.67
52.74	38	40.67
52.75	42	40.67
52.76	58	40.67
52.77	46	40.67
52.78	64	40.67
52.79	47	40.67
52.8	42	40.67
52.81	56	40.67
52.82	33	40.67
52.83	48	40.67
52.84	45	40.67
52.85	43	40.67
52.86	35	40.67
52.87	49	40.67
52.88	40	40.67
52.89	46	40.67
52.9	33	40.67
52.91	49	40.67
52.92	45	40.67
52.93	51	40.67
52.94	51	40.67
52.95	41	40.67
52.96	60	40.67
52.97	45	40.67
52.98	38	40.67
52.99	44	40.67
53	46	40.67
53.01	42	40.67
53.02	43	40.67
53.03	49	40.67
53.04	51	40.67
53.05	44	40.67
53.06	45	40.67
53.07	49	40.66
53.08	44	40.66
53.09	50	40.66
53.1	48	40.66
53.11	45	40.66
53.12	47	40.66
53.13	53	40.66
53.14	42	40.66
53.15	50	40.66
53.16	53	40.66
53.17	51	40.66
53.18	59	40.66
53.19	41	40.66
53.2	44	40.66
53.21	48	40.66
53.22	49	40.66
53.23	53	40.66
53.24	48	40.66
53.25	57	40.66
53.26	35	40.66
53.27	52	40.66
53.28	50	40.66
53.29	46	40.66
53.3	38	40.66
53.31	41	40.66
53.32	43	40.66
53.33	58	40.66
53.34	41	40.66
53.35	41	40.66
53.36	55	40.66
53.37	67	40.66
53.38	68	40.66
53.39	64	40.66
53.4	51	40.66
53.41	65	40.66
53.42	70	40.66
53.43	47	40.66
53.44	54	40.66
53.45	59	40.66
53.46	40	40.66
53.47	44	40.66
53.48	56	40.66
53.49	60	40.66
53.5	51	40.66
53.51	55	40.66
53.52	59	40.66
53.53	61	40.66
53.54	53	40.66
53.55	51	40.66
53.56	53	40.66
53.57	62	40.66
53.58	49	40.65
53.59	40	40.65
53.6	50	40.65
53.61	41	40.65
53.62	48	40.65
53.63	54	40.65
53.64	53	40.65
53.65	48	40.65
53.66	34	40.65
53.67	50	40.65
53.68	47	40.65
53.69	36	40.65
53.7	44	40.65
53.71	38	40.65
53.72	48	40.65
53.73	50	40.65
53.74	48	40.65
53.75	63	40.65
53.76	32	40.65
53.77	41	40.65
53.78	48	40.65
53.79	40	40.65
53.8	51	40.65
53.81	55	40.65
53.82	52	40.65
53.83	46	40.65
53.84	42	40.65
53.85	42	40.65
53.86	62	40.65
53.87	41	40.65
53.88	35	40.65
53.89	50	40.65
53.9	43	40.65
53.91	48	40.65
53.92	54	40.65
53.93	54	40.65
53.94	65	40.65
53.95	59	40.65
53.96	61	40.65
53.97	78	40.65
53.98	76	40.65
53.99	99	40.65
54	95	40.65
54.01	102	40.65
54.02	91	40.65
54.03	87	40.64
54.04	82	40.64
54.05	60	40.64
54.06	58	40.64
54.07	67	40.64
54.08	57	40.64
54.09	53	40.64
54.1	56	40.64
54.11	76	40.64
54.12	76	40.64
54.13	63	40.64
54.14	81	40.64
54.15	88	40.64
54.16	87	40.64
54.17	86	40.64
54.18	67	40.64
54.19	97	40.64
54.2	97	40.64
54.21	114	40.64
54.22	81	40.64
54.23	77	40.64
54.24	80	40.64
54.25	73	40.64
54.26	85	40.64
54.27	62	40.64
54.28	65	40.64
54.29	79	40.64
54.3	63	40.64
54.31	63	40.64
54.32	67	40.64
54.33	58	40.64
54.34	80	40.64
54.35	76	40.64
54.36	53	40.64
54.37	101	40.64
54.38	92	40.64
54.39	80	40.64
54.4	88	40.64
54.41	86	40.64
54.42	93	40.64
54.43	82	40.63
54.44	81	40.63
54.45	84	40.63
54.46	85	40.63
54.47	90	40.63
54.48	99	40.63
54.49	69	40.63
54.5	62	40.63
54.51	64	40.63
54.52	75	40.63
54.53	68	40.63
54.54	76	40.63
54.55	72	40.63
54.56	88	40.63
54.57	95	40.63
54.58	94	40.63
54.59	81	40.63
54.6	114	40.63
54.61	115	40.63
54.62	106	40.63
54.63	84	40.63
54.64	69	40.63
54.65	74	40.63
54.66	60	40.63
54.67	47	40.63
54.68	61	40.63
54.69	62	40.63
54.7	55	40.63
54.71	60	40.63
54.72	46	40.63
54.73	51	40.63
54.74	62	40.63
54.75	65	40.63
54.76	59	40.63
54.77	59	40.63
54.78	54	40.62
54.79	53	40.62
54.8	66	40.62
54.81	59	40.62
54.82	50	40.62
54.83	56	40.62
54.84	50	40.62
54.85	47	40.62
54.86	50	40.62
54.87	52	40.62
54.88	35	40.62
54.89	51	40.62
54.9	58	40.62
54.91	53	40.62
54.92	49	40.62
54.93	51	40.62
54.94	55	40.62
54.95	56	40.62
54.96	43	40.62
54.97	46	40.62
54.98	72	40.62
54.99	52	40.62
55	64	40.62
55.01	56	40.62
55.02	69	40.62
55.03	70	40.62
55.04	62	40.62
55.05	68	40.62
55.06	64	40.62
55.07	59	40.62
55.08	53	40.61
55.09	46	40.61
55.1	67	40.61
55.11	59	40.61
55.12	79	40.61
55.13	64	40.61
55.14	82	40.61
55.15	64	40.61
55.16	71	40.61
55.17	69	40.61
55.18	85	40.61
55.19	59	40.61
55.2	61	40.61
55.21	44	40.61
55.22	50	40.61
55.23	56	40.61
55.24	54	40.61
55.25	48	40.61
55.26	46	40.61
55.27	49	40.61
55.28	57	40.61
55.29	48	40.61
55.3	52	40.61
55.31	60	40.61
55.32	52	40.61
55.33	42	40.61
55.34	49	40.61
55.35	52	40.6
55.36	43	40.6
55.37	51	40.6
55.38	35	40.6
55.39	54	40.6
55.4	47	40.6
55.41	48	40.6
55.42	60	40.6
55.43	61	40.6
55.44	63	40.6
55.45	53	40.6
55.46	46	40.6
55.47	40	40.6
55.48	46	40.6
55.49	46	40.6
55.5	42	40.6
55.51	44	40.6
55.52	45	40.6
55.53	50	40.6
55.54	52	40.6
55.55	49	40.6
55.56	44	40.6
55.57	55	40.6
55.58	53	40.59
55.59	54	40.59
55.6	39	40.59
55.61	49	40.59
55.62	55	40.59
55.63	61	40.59
55.64	45	40.59
55.65	58	40.59
55.66	46	40.59
55.67	58	40.59
55.68	49	40.59
55.69	56	40.59
55.7	46	40.59
55.71	67	40.59
55.72	53	40.59
55.73	50	40.59
55.74	57	40.59
55.75	59	40.59
55.76	47	40.59
55.77	61	40.59
55.78	40	40.59
55.79	52	40.59
55.8	48	40.58
55.81	43	40.58
55.82	47	40.58
55.83	49	40.58
55.84	46	40.58
55.85	58	40.58
55.86	52	40.58
55.87	52	40.58
55.88	48	40.58
55.89	42	40.58
55.9	49	40.58
55.91	54	40.58
55.92	52	40.58
55.93	42	40.58
55.94	42	40.58
55.95	69	40.58
55.96	38	40.58
55.97	38	40.58
55.98	39	40.58
55.99	46	40.57
56	55	40.57
56.01	41	40.57
56.02	50	40.57
56.03	47	40.57
56.04	38	40.57
56.05	40	40.57
56.06	40	40.57
56.07	43	40.57
56.08	44	40.57
56.09	52	40.57
56.1	43	40.57
56.11	47	40.57
56.12	39	40.57
56.13	38	40.57
56.14	45	40.57
56.15	45	40.57
56.16	38	40.57
56.17	40	40.56
56.18	46	40.56
56.19	44	40.56
56.2	51	40.56
56.21	54	40.56
56.22	51	40.56
56.23	62	40.56
56.24	50	40.56
56.25	63	40.56
56.26	55	40.56
56.27	58	40.56
56.28	52	40.56
56.29	61	40.56
56.3	48	40.56
56.31	55	40.56
56.32	46	40.56
56.33	60	40.56
56.34	47	40.55
56.35	60	40.55
56.36	64	40.55
56.37	49	40.55
56.38	42	40.55
56.39	57	40.55
56.4	46	40.55
56.41	58	40.55
56.42	48	40.55
56.43	47	40.55
56.44	44	40.55
56.45	58	40.55
56.46	49	40.55
56.47	55	40.55
56.48	58	40.55
56.49	44	40.55
56.5	51	40.54
56.51	46	40.54
56.52	42	40.54
56.53	41	40.54
56.54	60	40.54
56.55	32	40.54
56.56	62	40.54
56.57	36	40.54
56.58	33	40.54
56.59	63	40.54
56.6	49	40.54
56.61	49	40.54
56.62	40	40.54
56.63	40	40.54
56.64	58	40.53
56.65	50	40.53
56.66	50	40.53
56.67	62	40.53
56.68	39	40.53
56.69	47	40.53
56.7	49	40.53
56.71	57	40.53
56.72	62	40.53
56.73	62	40.53
56.74	53	40.53
56.75	57	40.53
56.76	58	40.53
56.77	56	40.53
56.78	57	40.52
56.79	52	40.52
56.8	47	40.52
56.81	46	40.52
56.82	68	40.52
56.83	52	40.52
56.84	58	40.52
56.85	55	40.52
56.86	54	40.52
56.87	67	40.52
56.88	53	40.52
56.89	45	40.52
56.9	59	40.52
56.91	51	40.51
56.92	64	40.51
56.93	62	40.51
56.94	47	40.51
56.95	55	40.51
56.96	59	40.51
56.97	49	40.51
56.98	51	40.51
56.99	45	40.51
57	43	40.51
57.01	49	40.51
57.02	54	40.51
57.03	56	40.5
57.04	49	40.5
57.05	50	40.5
57.06	57	40.5
57.07	45	40.5
57.08	56	40.5
57.09	55	40.5
57.1	45	40.5
57.11	65	40.5
57.12	39	40.5
57.13	53	40.5
57.14	44	40.5
57.15	51	40.49
57.16	46	40.49
57.17	55	40.49
57.18	62	40.49
57.19	50	40.49
57.2	38	40.49
57.21	50	40.49
57.22	51	40.49
57.23	56	40.49
57.24	63	40.49
57.25	65	40.49
57.26	61	40.49
57.27	75	40.48
57.28	75	40.48
57.29	71	40.48
57.3	71	40.48
57.31	65	40.48
57.32	64	40.48
57.33	56	40.48
57.34	46	40.48
57.35	56	40.48
57.36	66	40.48
57.37	66	40.47
57.38	48	40.47
57.39	49	40.47
57.4	43	40.47
57.41	47	40.47
57.42	70	40.47
57.43	59	40.47
57.44	81	40.47
57.45	72	40.47
57.46	69	40.47
57.47	76	40.47
57.48	78	40.46
57.49	91	40.46
57.5	78	40.46
57.51	77	40.46
57.52	79	40.46
57.53	75	40.46
57.54	56	40.46
57.55	67	40.46
57.56	59	40.46
57.57	55	40.46
57.58	57	40.45
57.59	47	40.45
57.6	64	40.45
57.61	53	40.45
57.62	70	40.45
57.63	51	40.45
57.64	80	40.45
57.65	61	40.45
57.66	77	40.45
57.67	70	40.44
57.68	82	40.44
57.69	43	40.44
57.7	63	40.44
57.71	45	40.44
57.72	45	40.44
57.73	47	40.44
57.74	44	40.44
57.75	33	40.44
57.76	58	40.44
57.77	53	40.43
57.78	38	40.43
57.79	47	40.43
57.8	45	40.43
57.81	41	40.43
57.82	45	40.43
57.83	46	40.43
57.84	39	40.43
57.85	42	40.43
57.86	44	40.42
57.87	40	40.42
57.88	32	40.42
57.89	47	40.42
57.9	52	40.42
57.91	44	40.42
57.92	51	40.42
57.93	46	40.42
57.94	44	40.41
57.95	52	40.41
57.96	47	40.41
57.97	55	40.41
57.98	49	40.41
57.99	50	40.41
58	45	40.41
58.01	66	40.41
58.02	52	40.41
58.03	48	40.4
58.04	44	40.4
58.05	51	40.4
58.06	49	40.4
58.07	59	40.4
58.08	45	40.4
58.09	65	40.4
58.1	64	40.4
58.11	54	40.39
58.12	56	40.39
58.13	48	40.39
58.14	57	40.39
58.15	62	40.39
58.16	50	40.39
58.17	62	40.39
58.18	68	40.39
58.19	51	40.38
58.2	57	40.38
58.21	78	40.38
58.22	89	40.38
58.23	79	40.38
58.24	101	40.38
58.25	122	40.38
58.26	132	40.38
58.27	118	40.37
58.28	110	40.37
58.29	122	40.37
58.3	111	40.37
58.31	84	40.37
58.32	73	40.37
58.33	67	40.37
58.34	57	40.36
58.35	56	40.36
58.36	56	40.36
58.37	62	40.36
58.38	70	40.36
58.39	69	40.36
58.4	73	40.36
58.41	72	40.36
58.42	83	40.35
58.43	89	40.35
58.44	88	40.35
58.45	75	40.35
58.46	71	40.35
58.47	80	40.35
58.48	57	40.35
58.49	70	40.34
58.5	60	40.34
58.51	55	40.34
58.52	58	40.34
58.53	54	40.34
58.54	52	40.34
58.55	48	40.34
58.56	51	40.33
58.57	45	40.33
58.58	44	40.33
58.59	54	40.33
58.6	46	40.33
58.61	41	40.33
58.62	46	40.33
58.63	39	40.32
58.64	51	40.32
58.65	57	40.32
58.66	43	40.32
58.67	47	40.32
58.68	65	40.32
58.69	26	40.32
58.7	43	40.31
58.71	40	40.31
58.72	38	40.31
58.73	43	40.31
58.74	52	40.31
58.75	36	40.31
58.76	34	40.3
58.77	56	40.3
58.78	56	40.3
58.79	54	40.3
58.8	60	40.3
58.81	64	40.3
58.82	60	40.3
58.83	72	40.29
58.84	75	40.29
58.85	70	40.29
58.86	58	40.29
58.87	71	40.29
58.88	57	40.29
58.89	80	40.28
58.9	86	40.28
58.91	67	40.28
58.92	78	40.28
58.93	84	40.28
58.94	73	40.28
58.95	76	40.27
58.96	87	40.27
58.97	78	40.27
58.98	78	40.27
58.99	104	40.27
59	77	40.27
59.01	94	40.26
59.02	82	40.26
59.03	92	40.26
59.04	87	40.26
59.05	109	40.26
59.06	93	40.26
59.07	92	40.25
59.08	103	40.25
59.09	99	40.25
59.1	89	40.25
59.11	111	40.25
59.12	71	40.25
59.13	111	40.24
59.14	93	40.24
59.15	101	40.24
59.16	96	40.24
59.17	88	40.24
59.18	100	40.24
59.19	97	40.23
59.2	106	40.23
59.21	107	40.23
59.22	85	40.23
59.23	82	40.23
59.24	79	40.22
59.25	69	40.22
59.26	77	40.22
59.27	71	40.22
59.28	82	40.22
59.29	65	40.22
59.3	70	40.21
59.31	54	40.21
59.32	73	40.21
59.33	78	40.21
59.34	69	40.21
59.35	74	40.2
59.36	76	40.2
59.37	107	40.2
59.38	93	40.2
59.39	91	40.2
59.4	101	40.2
59.41	87	40.19
59.42	89	40.19
59.43	76	40.19
59.44	79	40.19
59.45	71	40.19
59.46	50	40.18
59.47	58	40.18
59.48	65	40.18
59.49	51	40.18
59.5	58	40.18
59.51	53	40.17
59.52	65	40.17
59.53	54	40.17
59.54	61	40.17
59.55	55	40.17
59.56	64	40.17
59.57	58	40.16
59.58	61	40.16
59.59	56	40.16
59.6	65	40.16
59.61	61	40.16
59.62	60	40.15
59.63	61	40.15
59.64	54	40.15
59.65	52	40.15
59.66	44	40.15
59.67	44	40.14
59.68	55	40.14
59.69	49	40.14
59.7	48	40.14
59.71	51	40.13
59.72	55	40.13
59.73	64	40.13
59.74	53	40.13
59.75	56	40.13
59.76	63	40.12
59.77	63	40.12
59.78	61	40.12
59.79	66	40.12
59.8	44	40.12
59.81	47	40.11
59.82	46	40.11
59.83	44	40.11
59.84	44	40.11
59.85	51	40.11
59.86	48	40.1
59.87	56	40.1
59.88	55	40.1
59.89	75	40.1
59.9	57	40.09
59.91	56	40.09
59.92	58	40.09
59.93	58	40.09
59.94	57	40.09
59.95	67	40.08
59.96	51	40.08
59.97	79	40.08
59.98	52	40.08
59.99	47	40.08
60	50	40.07
