5	459	465.58
5.01	451	460.4
5.02	420	455.42
5.03	424	450.64
5.04	420	446.05
5.05	392	441.65
5.06	463	437.42
5.07	415	433.37
5.08	397	429.48
5.09	452	425.75
5.1	381	422.17
5.11	405	418.75
5.12	416	415.46
5.13	407	412.32
5.14	411	409.3
5.15	427	406.42
5.16	437	403.66
5.17	415	401.02
5.18	395	398.49
5.19	406	396.07
5.2	420	393.75
5.21	386	391.54
5.22	404	389.43
5.23	382	387.41
5.24	380	385.48
5.25	357	383.63
5.26	369	381.87
5.27	415	380.19
5.28	416	378.58
5.29	415	377.05
5.3	394	375.59
5.31	376	374.19
5.32	378	372.86
5.33	412	371.59
5.34	356	370.38
5.35	409	369.22
5.36	399	368.12
5.37	370	367.07
5.38	384	366.07
5.39	382	365.11
5.4	387	364.2
5.41	394	363.33
5.42	377	362.5
5.43	368	361.71
5.44	395	360.95
5.45	384	360.23
5.46	375	359.54
5.47	396	358.88
5.48	385	358.25
5.49	390	357.64
5.5	375	357.06
5.51	397	356.51
5.52	376	355.98
5.53	368	355.47
5.54	343	354.98
5.55	372	354.5
5.56	357	354.05
5.57	378	353.61
5.58	370	353.19
5.59	357	352.78
5.6	423	352.38
5.61	363	351.99
5.62	367	351.62
5.63	395	351.25
5.64	339	350.89
5.65	359	350.54
5.66	379	350.2
5.67	352	349.87
5.68	344	349.54
5.69	350	349.21
5.7	321	348.89
5.71	376	348.57
5.72	319	348.25
5.73	332	347.94
5.74	367	347.63
5.75	337	347.31
5.76	358	347
5.77	333	346.69
5.78	321	346.38
5.79	343	346.07
5.8	314	345.75
5.81	355	345.43
5.82	336	345.12
5.83	335	344.79
5.84	351	344.47
5.85	328	344.14
5.86	306	343.81
5.87	326	343.47
5.88	349	343.13
5.89	315	342.78
5.9	346	342.43
5.91	308	342.08
5.92	309	341.72
5.93	312	341.35
5.94	306	340.98
5.95	354	340.6
5.96	362	340.21
5.97	315	339.82
5.98	356	339.43
5.99	307	339.02
6	313	338.62
6.01	333	338.2
6.02	314	337.78
6.03	343	337.35
6.04	302	336.91
6.05	349	336.47
6.06	321	336.02
6.07	311	335.56
6.08	337	335.09
6.09	321	334.62
6.1	323	334.15
6.11	337	333.66
6.12	340	333.17
6.13	322	332.67
6.14	339	332.16
6.15	284	331.65
6.16	307	331.13
6.17	316	330.6
6.18	298	330.07
6.19	293	329.53
6.2	317	328.98
6.21	320	328.43
6.22	313	327.87
6.23	320	327.3
6.24	316	326.73
6.25	285	326.15
6.26	293	325.56
6.27	296	324.97
6.28	334	324.37
6.29	329	323.77
6.3	281	323.16
6.31	325	322.54
6.32	328	321.92
6.33	314	321.3
6.34	332	320.66
6.35	273	320.03
6.36	296	319.38
6.37	296	318.73
6.38	323	318.08
6.39	310	317.42
6.4	278	316.76
6.41	319	316.09
6.42	280	315.42
6.43	317	314.75
6.44	308	314.07
6.45	311	313.38
6.46	343	312.69
6.47	338	312
6.48	317	311.3
6.49	291	310.6
6.5	264	309.9
6.51	284	309.19
6.52	277	308.48
6.53	284	307.77
6.54	284	307.05
6.55	284	306.34
6.56	308	305.61
6.57	304	304.89
6.58	300	304.16
6.59	294	303.43
6.6	286	302.7
6.61	272	301.97
6.62	296	301.24
6.63	308	300.5
6.64	287	299.76
6.65	288	299.02
6.66	305	298.28
6.67	302	297.54
6.68	308	296.79
6.69	313	296.05
6.7	290	295.3
6.71	284	294.56
6.72	297	293.81
6.73	294	293.06
6.74	273	292.31
6.75	294	291.56
6.76	287	290.82
6.77	302	290.07
6.78	291	289.32
6.79	295	288.57
6.8	275	287.82
6.81	290	287.07
6.82	289	286.33
6.83	280	285.58
6.84	281	284.83
6.85	301	284.09
6.86	288	283.35
6.87	286	282.6
6.88	285	281.86
6.89	293	281.12
6.9	276	280.38
6.91	256	279.64
6.92	252	278.91
6.93	294	278.17
6.94	276	277.44
6.95	276	276.71
6.96	303	275.98
6.97	271	275.25
6.98	282	274.53
6.99	284	273.81
7	291	273.09
7.01	272	272.37
7.02	290	271.65
7.03	305	270.94
7.04	241	270.23
7.05	280	269.52
7.06	271	268.82
7.07	265	268.12
7.08	282	267.42
7.09	264	266.72
7.1	305	266.03
7.11	240	265.34
7.12	271	264.66
7.13	253	263.97
7.14	291	263.29
7.15	262	262.62
7.16	280	261.95
7.17	287	261.28
7.18	259	260.61
7.19	273	259.95
7.2	268	259.29
7.21	293	258.64
7.22	286	257.99
7.23	275	257.34
7.24	272	256.7
7.25	237	256.06
7.26	271	255.43
7.27	296	254.8
7.28	276	254.17
7.29	272	253.55
7.3	260	252.94
7.31	262	252.32
7.32	251	251.71
7.33	296	251.11
7.34	259	250.51
7.35	266	249.92
7.36	236	249.33
7.37	278	248.74
7.38	255	248.16
7.39	264	247.58
7.4	270	247.01
7.41	297	246.44
7.42	265	245.88
7.43	253	245.32
7.44	250	244.77
7.45	268	244.22
7.46	264	243.68
7.47	248	243.14
7.48	261	242.61
7.49	276	242.08
7.5	256	241.55
7.51	229	241.03
7.52	268	240.52
7.53	286	240.01
7.54	276	239.51
7.55	232	239.01
7.56	242	238.52
7.57	268	238.03
7.58	227	237.54
7.59	268	237.06
7.6	258	236.59
7.61	267	236.12
7.62	268	235.66
7.63	230	235.2
7.64	249	234.75
7.65	246	234.3
7.66	259	233.86
7.67	228	233.42
7.68	295	232.99
7.69	257	232.56
7.7	274	232.14
7.71	244	231.72
7.72	258	231.31
7.73	212	230.9
7.74	262	230.5
7.75	244	230.1
7.76	224	229.71
7.77	279	229.32
7.78	255	228.94
7.79	251	228.57
7.8	243	228.2
7.81	247	227.83
7.82	219	227.47
7.83	219	227.11
7.84	246	226.76
7.85	230	226.42
7.86	273	226.08
7.87	269	225.74
7.88	254	225.41
7.89	221	225.09
7.9	270	224.77
7.91	229	224.45
7.92	226	224.14
7.93	249	223.83
7.94	250	223.53
7.95	268	223.24
7.96	261	222.95
7.97	232	222.66
7.98	210	222.38
7.99	237	222.11
8	253	221.83
8.01	214	221.57
8.02	251	221.31
8.03	219	221.05
8.04	261	220.8
8.05	240	220.55
8.06	224	220.31
8.07	233	220.07
8.08	236	219.84
8.09	261	219.61
8.1	256	219.39
8.11	221	219.17
8.12	254	218.95
8.13	220	218.74
8.14	243	218.54
8.15	235	218.34
8.16	238	218.14
8.17	220	217.95
8.18	226	217.76
8.19	233	217.58
8.2	231	217.4
8.21	257	217.23
8.22	243	217.06
8.23	229	216.89
8.24	219	216.73
8.25	226	216.57
8.26	250	216.42
8.27	225	216.27
8.28	243	216.13
8.29	228	215.99
8.3	242	215.85
8.31	247	215.72
8.32	267	215.59
8.33	254	215.47
8.34	207	215.35
8.35	269	215.23
8.36	237	215.12
8.37	254	215.01
8.38	238	214.9
8.39	249	214.8
8.4	187	214.71
8.41	237	214.61
8.42	266	214.52
8.43	256	214.44
8.44	237	214.36
8.45	234	214.28
8.46	229	214.2
8.47	242	214.13
8.48	229	214.07
8.49	245	214
8.5	235	213.94
8.51	230	213.88
8.52	233	213.83
8.53	233	213.78
8.54	246	213.73
8.55	247	213.69
8.56	219	213.65
8.57	222	213.61
8.58	242	213.58
8.59	219	213.55
8.6	211	213.52
8.61	243	213.5
8.62	235	213.47
8.63	218	213.46
8.64	207	213.44
8.65	230	213.43
8.66	210	213.42
8.67	247	213.41
8.68	215	213.41
8.69	232	213.41
8.7	236	213.41
8.71	239	213.41
8.72	253	213.42
8.73	259	213.43
8.74	196	213.45
8.75	220	213.46
8.76	211	213.48
8.77	202	213.5
8.78	222	213.52
8.79	214	213.55
8.8	231	213.58
8.81	223	213.61
8.82	237	213.64
8.83	214	213.68
8.84	232	213.72
8.85	239	213.76
8.86	222	213.8
8.87	219	213.84
8.88	212	213.89
8.89	202	213.94
8.9	245	213.99
8.91	214	214.04
8.92	260	214.1
8.93	239	214.16
8.94	227	214.22
8.95	214	214.28
8.96	212	214.34
8.97	207	214.41
8.98	225	214.47
8.99	204	214.54
9	248	214.61
9.01	229	214.69
9.02	234	214.76
9.03	227	214.84
9.04	215	214.92
9.05	217	215
9.06	229	215.08
9.07	199	215.16
9.08	233	215.24
9.09	229	215.33
9.1	184	215.42
9.11	199	215.51
9.12	218	215.6
9.13	210	215.69
9.14	229	215.78
9.15	206	215.88
9.16	230	215.97
9.17	179	216.07
9.18	246	216.17
9.19	215	216.27
9.2	202	216.37
9.21	209	216.47
9.22	232	216.58
9.23	198	216.68
9.24	217	216.79
9.25	226	216.89
9.26	213	217
9.27	197	217.11
9.28	217	217.22
9.29	189	217.33
9.3	209	217.44
9.31	220	217.55
9.32	195	217.67
9.33	190	217.78
9.34	209	217.9
9.35	197	218.01
9.36	198	218.13
9.37	186	218.25
9.38	214	218.36
9.39	185	218.48
9.4	177	218.6
9.41	219	218.72
9.42	191	218.84
9.43	226	218.96
9.44	197	219.09
9.45	199	219.21
9.46	197	219.33
9.47	200	219.45
9.48	212	219.58
9.49	191	219.7
9.5	194	219.83
9.51	222	219.95
9.52	212	220.08
9.53	218	220.2
9.54	209	220.33
9.55	221	220.46
9.56	203	220.58
9.57	187	220.71
9.58	207	220.84
9.59	212	220.96
9.6	189	221.09
9.61	206	221.22
9.62	187	221.35
9.63	211	221.47
9.64	218	221.6
9.65	193	221.73
9.66	199	221.86
9.67	211	221.99
9.68	200	222.12
9.69	192	222.24
9.7	204	222.37
9.71	195	222.5
9.72	205	222.63
9.73	214	222.76
9.74	211	222.88
9.75	222	223.01
9.76	214	223.14
9.77	200	223.27
9.78	208	223.39
9.79	196	223.52
9.8	220	223.65
9.81	208	223.77
9.82	207	223.9
9.83	183	224.03
9.84	203	224.15
9.85	234	224.28
9.86	196	224.4
9.87	222	224.53
9.88	211	224.65
9.89	223	224.78
9.9	186	224.9
9.91	190	225.02
9.92	186	225.15
9.93	184	225.27
9.94	206	225.39
9.95	196	225.51
9.96	189	225.63
9.97	214	225.75
9.98	184	225.87
9.99	191	225.99
10	182	226.11
10.01	202	226.23
10.02	175	226.34
10.03	208	226.46
10.04	219	226.58
10.05	189	226.69
10.06	226	226.81
10.07	179	226.92
10.08	207	227.04
10.09	198	227.15
10.1	197	227.26
10.11	189	227.37
10.12	176	227.48
10.13	212	227.59
10.14	209	227.7
10.15	202	227.81
10.16	199	227.92
10.17	195	228.03
10.18	186	228.13
10.19	207	228.24
10.2	182	228.34
10.21	202	228.45
10.22	207	228.55
10.23	196	228.65
10.24	182	228.75
10.25	201	228.85
10.26	198	228.95
10.27	177	229.05
10.28	181	229.15
10.29	199	229.25
10.3	196	229.34
10.31	200	229.44
10.32	185	229.53
10.33	197	229.62
10.34	196	229.72
10.35	175	229.81
10.36	192	229.9
10.37	187	229.99
10.38	168	230.07
10.39	183	230.16
10.4	203	230.25
10.41	199	230.33
10.42	183	230.42
10.43	174	230.5
10.44	190	230.58
10.45	200	230.66
10.46	204	230.74
10.47	193	230.82
10.48	200	230.9
10.49	192	230.97
10.5	185	231.05
10.51	207	231.12
10.52	187	231.2
10.53	194	231.27
10.54	203	231.34
10.55	171	231.41
10.56	215	231.48
10.57	172	231.55
10.58	190	231.61
10.59	195	231.68
10.6	180	231.74
10.61	171	231.8
10.62	196	231.87
10.63	209	231.93
10.64	205	231.99
10.65	189	232.04
10.66	189	232.1
10.67	186	232.16
10.68	196	232.21
10.69	197	232.27
10.7	202	232.32
10.71	216	232.37
10.72	206	232.42
10.73	206	232.47
10.74	174	232.52
10.75	182	232.56
10.76	193	232.61
10.77	198	232.65
10.78	203	232.69
10.79	171	232.73
10.8	186	232.77
10.81	219	232.81
10.82	180	232.85
10.83	206	232.89
10.84	186	232.92
10.85	206	232.96
10.86	205	232.99
10.87	171	233.02
10.88	232	233.05
10.89	207	233.08
10.9	195	233.11
10.91	195	233.13
10.92	208	233.16
10.93	213	233.18
10.94	219	233.2
10.95	191	233.23
10.96	175	233.25
10.97	205	233.26
10.98	196	233.28
10.99	186	233.3
11	219	233.31
11.01	221	233.33
11.02	194	233.34
11.03	199	233.35
11.04	204	233.36
11.05	194	233.37
11.06	194	233.38
11.07	207	233.38
11.08	236	233.39
11.09	224	233.39
11.1	216	233.39
11.11	190	233.39
11.12	215	233.39
11.13	217	233.39
11.14	192	233.39
11.15	227	233.38
11.16	199	233.38
11.17	204	233.37
11.18	229	233.37
11.19	225	233.36
11.2	227	233.35
11.21	204	233.33
11.22	230	233.32
11.23	222	233.31
11.24	235	233.29
11.25	260	233.27
11.26	287	233.26
11.27	243	233.24
11.28	255	233.22
11.29	231	233.2
11.3	293	233.17
11.31	271	233.15
11.32	271	233.12
11.33	266	233.1
11.34	273	233.07
11.35	276	233.04
11.36	291	233.01
11.37	315	232.98
11.38	295	232.94
11.39	340	232.91
11.4	298	232.88
11.41	328	232.84
11.42	384	232.8
11.43	348	232.76
11.44	397	232.72
11.45	396	232.68
11.46	405	232.64
11.47	347	232.59
11.48	396	232.55
11.49	437	232.5
11.5	414	232.46
11.51	434	232.41
11.52	427	232.36
11.53	483	232.31
11.54	470	232.26
11.55	482	232.2
11.56	475	232.15
11.57	493	232.09
11.58	529	232.04
11.59	512	231.98
11.6	562	231.92
11.61	588	231.86
11.62	569	231.8
11.63	638	231.74
11.64	665	231.67
11.65	671	231.61
11.66	682	231.54
11.67	686	231.48
11.68	700	231.41
11.69	746	231.34
11.7	722	231.27
11.71	656	231.2
11.72	762	231.12
11.73	736	231.05
11.74	679	230.98
11.75	710	230.9
11.76	711	230.82
11.77	638	230.75
11.78	652	230.67
11.79	574	230.59
11.8	577	230.51
11.81	537	230.42
11.82	526	230.34
11.83	465	230.26
11.84	455	230.17
11.85	445	230.09
11.86	383	230
11.87	373	229.91
11.88	359	229.82
11.89	361	229.73
11.9	333	229.64
11.91	336	229.55
11.92	358	229.45
11.93	332	229.36
11.94	311	229.27
11.95	354	229.17
11.96	328	229.07
11.97	327	228.97
11.98	300	228.88
11.99	339	228.78
12	334	228.67
12.01	367	228.57
12.02	329	228.47
12.03	376	228.37
12.04	364	228.26
12.05	360	228.16
12.06	413	228.05
12.07	419	227.94
12.08	426	227.83
12.09	406	227.72
12.1	435	227.61
12.11	439	227.5
12.12	476	227.39
12.13	475	227.28
12.14	458	227.16
12.15	510	227.05
12.16	506	226.93
12.17	556	226.82
12.18	540	226.7
12.19	549	226.58
12.2	568	226.47
12.21	587	226.35
12.22	598	226.23
12.23	661	226.1
12.24	656	225.98
12.25	745	225.86
12.26	724	225.74
12.27	762	225.61
12.28	795	225.49
12.29	839	225.36
12.3	923	225.23
12.31	903	225.11
12.32	1011	224.98
12.33	972	224.85
12.34	1179	224.72
12.35	1152	224.59
12.36	1242	224.46
12.37	1379	224.33
12.38	1378	224.2
12.39	1420	224.06
12.4	1536	223.93
12.41	1680	223.79
12.42	1765	223.66
12.43	1949	223.52
12.44	2035	223.39
12.45	2162	223.25
12.46	2369	223.11
12.47	2524	222.97
12.48	2817	222.83
12.49	2947	222.69
12.5	3255	222.55
12.51	3529	222.41
12.52	3767	222.27
12.53	3972	222.13
12.54	4324	221.99
12.55	4664	221.84
12.56	5076	221.7
12.57	5311	221.55
12.58	5856	221.41
12.59	6316	221.26
12.6	6862	221.12
12.61	7093	220.97
12.62	7734	220.82
12.63	8372	220.67
12.64	8650	220.53
12.65	8952	220.38
12.66	9546	220.23
12.67	9623	220.08
12.68	9667	219.93
12.69	9685	219.78
12.7	9200	219.62
12.71	8771	219.47
12.72	8192	219.32
12.73	7577	219.17
12.74	6721	219.01
12.75	6151	218.86
12.76	5321	218.71
12.77	4867	218.55
12.78	3952	218.4
12.79	3647	218.24
12.8	3092	218.08
12.81	2638	217.93
12.82	2261	217.77
12.83	1992	217.61
12.84	1753	217.46
12.85	1532	217.3
12.86	1328	217.14
12.87	1185	216.98
12.88	1029	216.82
12.89	878	216.66
12.9	820	216.5
12.91	718	216.34
12.92	665	216.18
12.93	640	216.02
12.94	557	215.86
12.95	559	215.7
12.96	513	215.53
12.97	457	215.37
12.98	416	215.21
12.99	432	215.05
13	409	214.88
13.01	404	214.72
13.02	405	214.56
13.03	358	214.39
13.04	328	214.23
13.05	360	214.06
13.06	371	213.9
13.07	333	213.73
13.08	325	213.57
13.09	350	213.4
13.1	301	213.24
13.11	298	213.07
13.12	298	212.9
13.13	331	212.74
13.14	319	212.57
13.15	308	212.4
13.16	327	212.24
13.17	333	212.07
13.18	330	211.9
13.19	328	211.73
13.2	346	211.57
13.21	311	211.4
13.22	336	211.23
13.23	335	211.06
13.24	314	210.89
13.25	344	210.73
13.26	329	210.56
13.27	327	210.39
13.28	341	210.22
13.29	348	210.05
13.3	367	209.88
13.31	334	209.71
13.32	347	209.54
13.33	367	209.38
13.34	376	209.21
13.35	377	209.04
13.36	392	208.87
13.37	396	208.7
13.38	428	208.53
13.39	427	208.36
13.4	424	208.19
13.41	434	208.02
13.42	487	207.85
13.43	450	207.68
13.44	469	207.51
13.45	470	207.34
13.46	561	207.17
13.47	520	207
13.48	565	206.83
13.49	611	206.66
13.5	565	206.49
13.51	618	206.32
13.52	637	206.15
13.53	674	205.99
13.54	720	205.82
13.55	730	205.65
13.56	710	205.48
13.57	788	205.31
13.58	798	205.14
13.59	823	204.97
13.6	854	204.8
13.61	874	204.63
13.62	1011	204.46
13.63	1053	204.29
13.64	1041	204.13
13.65	1205	203.96
13.66	1241	203.79
13.67	1359	203.62
13.68	1365	203.45
13.69	1408	203.28
13.7	1680	203.12
13.71	1611	202.95
13.72	1817	202.78
13.73	1953	202.61
13.74	2105	202.45
13.75	2187	202.28
13.76	2384	202.11
13.77	2612	201.95
13.78	2806	201.78
13.79	3050	201.61
13.8	3283	201.45
13.81	3611	201.28
13.82	3959	201.11
13.83	4297	200.95
13.84	4588	200.78
13.85	5120	200.62
13.86	5438	200.45
13.87	6172	200.29
13.88	6779	200.12
13.89	7455	199.96
13.9	8256	199.8
13.91	9006	199.63
13.92	9307	199.47
13.93	10137	199.31
13.94	10709	199.14
13.95	10692	198.98
13.96	10926	198.82
13.97	10415	198.66
13.98	9738	198.49
13.99	9102	198.33
14	8038	198.17
14.01	7218	198.01
14.02	6268	197.85
14.03	5139	197.69
14.04	4639	197.53
14.05	3879	197.37
14.06	3360	197.21
14.07	2813	197.05
14.08	2362	196.89
14.09	2029	196.73
14.1	1791	196.58
14.11	1543	196.42
14.12	1333	196.26
14.13	1177	196.1
14.14	1013	195.95
14.15	841	195.79
14.16	740	195.64
14.17	710	195.48
14.18	584	195.32
14.19	515	195.17
14.2	506	195.02
14.21	449	194.86
14.22	461	194.71
14.23	353	194.56
14.24	370	194.4
14.25	340	194.25
14.26	313	194.1
14.27	299	193.95
14.28	308	193.8
14.29	298	193.65
14.3	276	193.49
14.31	257	193.34
14.32	258	193.2
14.33	261	193.05
14.34	274	192.9
14.35	263	192.75
14.36	255	192.6
14.37	239	192.46
14.38	247	192.31
14.39	214	192.16
14.4	228	192.02
14.41	226	191.87
14.42	206	191.73
14.43	202	191.58
14.44	237	191.44
14.45	214	191.3
14.46	211	191.15
14.47	202	191.01
14.48	213	190.87
14.49	210	190.73
14.5	193	190.59
14.51	203	190.45
14.52	224	190.31
14.53	208	190.17
14.54	187	190.03
14.55	214	189.89
14.56	213	189.75
14.57	205	189.62
14.58	220	189.48
14.59	200	189.34
14.6	234	189.21
14.61	195	189.07
14.62	193	188.94
14.63	163	188.8
14.64	200	188.67
14.65	178	188.54
14.66	169	188.41
14.67	180	188.27
14.68	192	188.14
14.69	175	188.01
14.7	187	187.88
14.71	174	187.75
14.72	172	187.63
14.73	180	187.5
14.74	176	187.37
14.75	189	187.24
14.76	190	187.12
14.77	180	186.99
14.78	180	186.87
14.79	161	186.74
14.8	154	186.62
14.81	162	186.49
14.82	158	186.37
14.83	194	186.25
14.84	173	186.13
14.85	172	186.01
14.86	187	185.89
14.87	184	185.77
14.88	145	185.65
14.89	190	185.53
14.9	162	185.41
14.91	160	185.29
14.92	180	185.18
14.93	168	185.06
14.94	153	184.95
14.95	166	184.83
14.96	178	184.72
14.97	166	184.6
14.98	162	184.49
14.99	149	184.38
15	156	184.27
15.01	164	184.16
15.02	193	184.05
15.03	171	183.94
15.04	176	183.83
15.05	154	183.72
15.06	156	183.62
15.07	163	183.51
15.08	142	183.4
15.09	160	183.3
15.1	150	183.19
15.11	151	183.09
15.12	153	182.99
15.13	155	182.88
15.14	156	182.78
15.15	179	182.68
15.16	173	182.58
15.17	157	182.48
15.18	178	182.38
15.19	158	182.28
15.2	183	182.19
15.21	175	182.09
15.22	171	181.99
15.23	178	181.9
15.24	177	181.8
15.25	164	181.71
15.26	196	181.62
15.27	183	181.52
15.28	176	181.43
15.29	152	181.34
15.3	181	181.25
15.31	178	181.16
15.32	160	181.07
15.33	168	180.98
15.34	153	180.89
15.35	165	180.81
15.36	164	180.72
15.37	159	180.64
15.38	180	180.55
15.39	157	180.47
15.4	172	180.38
15.41	180	180.3
15.42	151	180.22
15.43	177	180.14
15.44	166	180.06
15.45	175	179.98
15.46	162	179.9
15.47	191	179.82
15.48	156	179.75
15.49	143	179.67
15.5	185	179.59
15.51	201	179.52
15.52	180	179.44
15.53	196	179.37
15.54	161	179.3
15.55	164	179.23
15.56	160	179.16
15.57	185	179.09
15.58	173	179.02
15.59	192	178.95
15.6	165	178.88
15.61	169	178.81
15.62	170	178.74
15.63	194	178.68
15.64	179	178.61
15.65	185	178.55
15.66	153	178.49
15.67	161	178.42
15.68	177	178.36
15.69	137	178.3
15.7	160	178.24
15.71	173	178.18
15.72	173	178.12
15.73	175	178.06
15.74	169	178.01
15.75	180	177.95
15.76	165	177.89
15.77	150	177.84
15.78	161	177.78
15.79	177	177.73
15.8	171	177.68
15.81	166	177.63
15.82	181	177.58
15.83	156	177.52
15.84	170	177.48
15.85	161	177.43
15.86	159	177.38
15.87	161	177.33
15.88	188	177.29
15.89	167	177.24
15.9	158	177.19
15.91	174	177.15
15.92	159	177.11
15.93	155	177.07
15.94	176	177.02
15.95	182	176.98
15.96	176	176.94
15.97	167	176.9
15.98	178	176.86
15.99	180	176.83
16	159	176.79
16.01	201	176.75
16.02	167	176.72
16.03	150	176.68
16.04	168	176.65
16.05	183	176.62
16.06	166	176.59
16.07	179	176.55
16.08	176	176.52
16.09	172	176.49
16.1	158	176.46
16.11	174	176.44
16.12	171	176.41
16.13	178	176.38
16.14	168	176.36
16.15	182	176.33
16.16	176	176.31
16.17	201	176.28
16.18	182	176.26
16.19	179	176.24
16.2	174	176.22
16.21	187	176.2
16.22	195	176.18
16.23	163	176.16
16.24	155	176.14
16.25	203	176.13
16.26	167	176.11
16.27	167	176.09
16.28	165	176.08
16.29	176	176.06
16.3	147	176.05
16.31	163	176.04
16.32	162	176.03
16.33	147	176.02
16.34	167	176.01
16.35	169	176
16.36	175	175.99
16.37	171	175.98
16.38	172	175.98
16.39	172	175.97
16.4	168	175.96
16.41	179	175.96
16.42	183	175.96
16.43	168	175.95
16.44	204	175.95
16.45	171	175.95
16.46	161	175.95
16.47	177	175.95
16.48	167	175.95
16.49	191	175.95
16.5	180	175.96
16.51	171	175.96
16.52	193	175.96
16.53	176	175.97
16.54	153	175.97
16.55	176	175.98
16.56	174	175.99
16.57	191	176
16.58	173	176
16.59	187	176.01
16.6	159	176.02
16.61	161	176.04
16.62	189	176.05
16.63	185	176.06
16.64	164	176.07
16.65	188	176.09
16.66	162	176.1
16.67	191	176.12
16.68	149	176.14
16.69	174	176.15
16.7	177	176.17
16.71	178	176.19
16.72	198	176.21
16.73	172	176.23
16.74	153	176.25
16.75	152	176.27
16.76	171	176.3
16.77	182	176.32
16.78	173	176.34
16.79	180	176.37
16.8	184	176.4
16.81	170	176.42
16.82	151	176.45
16.83	197	176.48
16.84	179	176.51
16.85	171	176.54
16.86	159	176.57
16.87	138	176.6
16.88	147	176.63
16.89	195	176.66
16.9	177	176.7
16.91	172	176.73
16.92	189	176.76
16.93	176	176.8
16.94	183	176.84
16.95	161	176.87
16.96	183	176.91
16.97	176	176.95
16.98	188	176.99
16.99	193	177.03
17	167	177.07
17.01	179	177.11
17.02	174	177.15
17.03	184	177.2
17.04	164	177.24
17.05	157	177.29
17.06	164	177.33
17.07	190	177.38
17.08	172	177.42
17.09	171	177.47
17.1	176	177.52
17.11	192	177.57
17.12	157	177.62
17.13	193	177.67
17.14	176	177.72
17.15	180	177.77
17.16	185	177.82
17.17	186	177.88
17.18	167	177.93
17.19	207	177.99
17.2	177	178.04
17.21	160	178.1
17.22	148	178.15
17.23	209	178.21
17.24	192	178.27
17.25	168	178.33
17.26	177	178.39
17.27	168	178.45
17.28	187	178.51
17.29	158	178.57
17.3	156	178.63
17.31	190	178.7
17.32	159	178.76
17.33	158	178.83
17.34	193	178.89
17.35	179	178.96
17.36	170	179.02
17.37	170	179.09
17.38	207	179.16
17.39	222	179.23
17.4	174	179.3
17.41	179	179.37
17.42	186	179.44
17.43	187	179.51
17.44	178	179.58
17.45	189	179.65
17.46	177	179.73
17.47	162	179.8
17.48	190	179.88
17.49	160	179.95
17.5	198	180.03
17.51	187	180.1
17.52	189	180.18
17.53	162	180.26
17.54	181	180.34
17.55	163	180.42
17.56	182	180.5
17.57	192	180.58
17.58	198	180.66
17.59	190	180.74
17.6	193	180.83
17.61	175	180.91
17.62	199	180.99
17.63	222	181.08
17.64	184	181.16
17.65	164	181.25
17.66	198	181.33
17.67	188	181.42
17.68	211	181.51
17.69	181	181.6
17.7	188	181.69
17.71	207	181.78
17.72	173	181.87
17.73	205	181.96
17.74	162	182.05
17.75	197	182.14
17.76	202	182.24
17.77	206	182.33
17.78	185	182.42
17.79	188	182.52
17.8	155	182.61
17.81	194	182.71
17.82	191	182.81
17.83	202	182.9
17.84	194	183
17.85	190	183.1
17.86	188	183.2
17.87	188	183.3
17.88	199	183.4
17.89	168	183.5
17.9	189	183.6
17.91	172	183.7
17.92	182	183.8
17.93	205	183.91
17.94	201	184.01
17.95	160	184.12
17.96	192	184.22
17.97	166	184.33
17.98	189	184.43
17.99	184	184.54
18	169	184.65
18.01	188	184.75
18.02	173	184.86
18.03	175	184.97
18.04	195	185.08
18.05	202	185.19
18.06	194	185.3
18.07	174	185.41
18.08	178	185.52
18.09	198	185.64
18.1	190	185.75
18.11	188	185.86
18.12	196	185.98
18.13	181	186.09
18.14	187	186.21
18.15	180	186.32
18.16	173	186.44
18.17	176	186.55
18.18	212	186.67
18.19	173	186.79
18.2	188	186.91
18.21	191	187.03
18.22	191	187.15
18.23	179	187.27
18.24	183	187.39
18.25	186	187.51
18.26	187	187.63
18.27	158	187.75
18.28	212	187.87
18.29	194	188
18.3	188	188.12
18.31	205	188.24
18.32	185	188.37
18.33	182	188.49
18.34	188	188.62
18.35	214	188.74
18.36	189	188.87
18.37	200	189
18.38	202	189.13
18.39	186	189.25
18.4	219	189.38
18.41	197	189.51
18.42	173	189.64
18.43	188	189.77
18.44	205	189.9
18.45	185	190.03
18.46	216	190.16
18.47	195	190.29
18.48	193	190.43
18.49	191	190.56
18.5	180	190.69
18.51	184	190.83
18.52	191	190.96
18.53	215	191.1
18.54	191	191.23
18.55	207	191.37
18.56	202	191.5
18.57	239	191.64
18.58	169	191.78
18.59	198	191.91
18.6	192	192.05
18.61	206	192.19
18.62	188	192.33
18.63	213	192.47
18.64	191	192.61
18.65	212	192.75
18.66	193	192.89
18.67	172	193.03
18.68	216	193.17
18.69	197	193.31
18.7	207	193.45
18.71	219	193.6
18.72	216	193.74
18.73	216	193.88
18.74	190	194.03
18.75	201	194.17
18.76	210	194.32
18.77	202	194.46
18.78	215	194.61
18.79	209	194.75
18.8	207	194.9
18.81	206	195.05
18.82	226	195.19
18.83	207	195.34
18.84	205	195.49
18.85	196	195.64
18.86	190	195.79
18.87	193	195.93
18.88	214	196.08
18.89	205	196.23
18.9	210	196.38
18.91	214	196.53
18.92	210	196.69
18.93	202	196.84
18.94	218	196.99
18.95	190	197.14
18.96	192	197.29
18.97	189	197.45
18.98	204	197.6
18.99	218	197.75
19	214	197.91
19.01	228	198.06
19.02	199	198.22
19.03	180	198.37
19.04	211	198.53
19.05	185	198.68
19.06	208	198.84
19.07	210	198.99
19.08	175	199.15
19.09	200	199.31
19.1	258	199.46
19.11	239	199.62
19.12	191	199.78
19.13	201	199.94
19.14	222	200.1
19.15	216	200.26
19.16	209	200.42
19.17	207	200.57
19.18	215	200.73
19.19	229	200.9
19.2	239	201.06
19.21	217	201.22
19.22	197	201.38
19.23	199	201.54
19.24	217	201.7
19.25	214	201.86
19.26	215	202.03
19.27	205	202.19
19.28	204	202.35
19.29	218	202.51
19.3	200	202.68
19.31	203	202.84
19.32	225	203.01
19.33	234	203.17
19.34	212	203.33
19.35	222	203.5
19.36	191	203.66
19.37	213	203.83
19.38	213	204
19.39	209	204.16
19.4	214	204.33
19.41	217	204.49
19.42	228	204.66
19.43	222	204.83
19.44	244	205
19.45	231	205.16
19.46	217	205.33
19.47	220	205.5
19.48	221	205.67
19.49	247	205.84
19.5	227	206
19.51	219	206.17
19.52	256	206.34
19.53	216	206.51
19.54	231	206.68
19.55	238	206.85
19.56	241	207.02
19.57	243	207.19
19.58	239	207.36
19.59	248	207.53
19.6	232	207.71
19.61	234	207.88
19.62	232	208.05
19.63	251	208.22
19.64	262	208.39
19.65	262	208.56
19.66	216	208.74
19.67	238	208.91
19.68	249	209.08
19.69	281	209.25
19.7	259	209.43
19.71	282	209.6
19.72	263	209.77
19.73	255	209.95
19.74	290	210.12
19.75	252	210.3
19.76	277	210.47
19.77	285	210.64
19.78	284	210.82
19.79	272	210.99
19.8	266	211.17
19.81	287	211.34
19.82	282	211.52
19.83	290	211.69
19.84	286	211.87
19.85	253	212.05
19.86	243	212.22
19.87	253	212.4
19.88	241	212.57
19.89	258	212.75
19.9	220	212.93
19.91	250	213.1
19.92	234	213.28
19.93	253	213.46
19.94	245	213.64
19.95	221	213.81
19.96	251	213.99
19.97	243	214.17
19.98	224	214.35
19.99	230	214.52
20	219	214.7
20.01	232	214.88
20.02	251	215.06
20.03	219	215.24
20.04	234	215.42
20.05	230	215.59
20.06	234	215.77
20.07	223	215.95
20.08	242	216.13
20.09	218	216.31
20.1	228	216.49
20.11	229	216.67
20.12	213	216.85
20.13	203	217.03
20.14	222	217.21
20.15	250	217.39
20.16	261	217.57
20.17	227	217.75
20.18	219	217.93
20.19	241	218.11
20.2	245	218.29
20.21	237	218.47
20.22	247	218.65
20.23	217	218.83
20.24	240	219.01
20.25	243	219.19
20.26	209	219.37
20.27	232	219.55
20.28	237	219.73
20.29	237	219.91
20.3	258	220.09
20.31	252	220.27
20.32	255	220.45
20.33	219	220.63
20.34	218	220.82
20.35	211	221
20.36	223	221.18
20.37	220	221.36
20.38	229	221.54
20.39	237	221.72
20.4	251	221.9
20.41	245	222.09
20.42	246	222.27
20.43	231	222.45
20.44	244	222.63
20.45	234	222.81
20.46	242	222.99
20.47	216	223.17
20.48	233	223.36
20.49	229	223.54
20.5	214	223.72
20.51	250	223.9
20.52	233	224.08
20.53	257	224.27
20.54	238	224.45
20.55	242	224.63
20.56	242	224.81
20.57	242	224.99
20.58	247	225.17
20.59	222	225.36
20.6	238	225.54
20.61	205	225.72
20.62	230	225.9
20.63	247	226.08
20.64	234	226.27
20.65	242	226.45
20.66	232	226.63
20.67	226	226.81
20.68	246	226.99
20.69	210	227.18
20.7	223	227.36
20.71	245	227.54
20.72	212	227.72
20.73	261	227.9
20.74	270	228.08
20.75	234	228.27
20.76	225	228.45
20.77	217	228.63
20.78	257	228.81
20.79	241	228.99
20.8	252	229.17
20.81	247	229.36
20.82	249	229.54
20.83	224	229.72
20.84	244	229.9
20.85	232	230.08
20.86	226	230.26
20.87	242	230.44
20.88	210	230.63
20.89	244	230.81
20.9	231	230.99
20.91	246	231.17
20.92	239	231.35
20.93	253	231.53
20.94	258	231.71
20.95	236	231.89
20.96	230	232.07
20.97	237	232.25
20.98	245	232.44
20.99	223	232.62
21	246	232.8
21.01	242	232.98
21.02	216	233.16
21.03	232	233.34
21.04	260	233.52
21.05	234	233.7
21.06	229	233.88
21.07	240	234.06
21.08	250	234.24
21.09	254	234.42
21.1	232	234.6
21.11	240	234.78
21.12	282	234.96
21.13	256	235.13
21.14	273	235.31
21.15	254	235.49
21.16	245	235.67
21.17	246	235.85
21.18	251	236.03
21.19	265	236.21
21.2	247	236.39
21.21	228	236.57
21.22	252	236.74
21.23	272	236.92
21.24	269	237.1
21.25	241	237.28
21.26	248	237.46
21.27	276	237.64
21.28	251	237.81
21.29	254	237.99
21.3	271	238.17
21.31	266	238.35
21.32	256	238.52
21.33	263	238.7
21.34	256	238.88
21.35	268	239.05
21.36	250	239.23
21.37	253	239.41
21.38	277	239.58
21.39	276	239.76
21.4	255	239.93
21.41	289	240.11
21.42	248	240.29
21.43	262	240.46
21.44	258	240.64
21.45	274	240.81
21.46	262	240.99
21.47	251	241.16
21.48	221	241.34
21.49	265	241.51
21.5	230	241.69
21.51	240	241.86
21.52	234	242.04
21.53	251	242.21
21.54	279	242.38
21.55	248	242.56
21.56	265	242.73
21.57	252	242.91
21.58	294	243.08
21.59	254	243.25
21.6	268	243.42
21.61	262	243.6
21.62	265	243.77
21.63	254	243.94
21.64	230	244.11
21.65	256	244.29
21.66	301	244.46
21.67	264	244.63
21.68	264	244.8
21.69	243	244.97
21.7	292	245.14
21.71	235	245.31
21.72	240	245.48
21.73	271	245.66
21.74	260	245.83
21.75	261	246
21.76	293	246.17
21.77	268	246.34
21.78	241	246.5
21.79	270	246.67
21.8	257	246.84
21.81	226	247.01
21.82	268	247.18
21.83	225	247.35
21.84	253	247.52
21.85	256	247.69
21.86	285	247.85
21.87	275	248.02
21.88	252	248.19
21.89	290	248.36
21.9	266	248.52
21.91	269	248.69
21.92	280	248.86
21.93	269	249.02
21.94	251	249.19
21.95	300	249.35
21.96	263	249.52
21.97	283	249.68
21.98	246	249.85
21.99	265	250.01
22	246	250.18
22.01	259	250.34
22.02	277	250.51
22.03	263	250.67
22.04	289	250.83
22.05	253	251
22.06	255	251.16
22.07	293	251.32
22.08	267	251.49
22.09	259	251.65
22.1	244	251.81
22.11	252	251.97
22.12	249	252.14
22.13	261	252.3
22.14	290	252.46
22.15	255	252.62
22.16	281	252.78
22.17	271	252.94
22.18	267	253.1
22.19	268	253.26
22.2	260	253.42
22.21	269	253.58
22.22	296	253.74
22.23	270	253.9
22.24	288	254.06
22.25	279	254.21
22.26	206	254.37
22.27	258	254.53
22.28	266	254.69
22.29	254	254.84
22.3	267	255
22.31	306	255.16
22.32	261	255.31
22.33	262	255.47
22.34	287	255.63
22.35	278	255.78
22.36	259	255.94
22.37	253	256.09
22.38	293	256.25
22.39	276	256.4
22.4	262	256.56
22.41	293	256.71
22.42	262	256.86
22.43	263	257.02
22.44	296	257.17
22.45	262	257.32
22.46	300	257.47
22.47	268	257.63
22.48	280	257.78
22.49	260	257.93
22.5	277	258.08
22.51	262	258.23
22.52	285	258.38
22.53	248	258.53
22.54	278	258.68
22.55	256	258.83
22.56	258	258.98
22.57	257	259.13
22.58	278	259.28
22.59	284	259.43
22.6	273	259.58
22.61	287	259.72
22.62	283	259.87
22.63	218	260.02
22.64	264	260.17
22.65	270	260.31
22.66	264	260.46
22.67	285	260.6
22.68	256	260.75
22.69	264	260.9
22.7	272	261.04
22.71	281	261.19
22.72	267	261.33
22.73	264	261.47
22.74	286	261.62
22.75	282	261.76
22.76	255	261.9
22.77	281	262.05
22.78	278	262.19
22.79	272	262.33
22.8	296	262.47
22.81	271	262.61
22.82	285	262.76
22.83	285	262.9
22.84	259	263.04
22.85	298	263.18
22.86	228	263.32
22.87	287	263.46
22.88	261	263.59
22.89	261	263.73
22.9	278	263.87
22.91	294	264.01
22.92	278	264.15
22.93	252	264.28
22.94	239	264.42
22.95	287	264.56
22.96	294	264.69
22.97	241	264.83
22.98	275	264.97
22.99	295	265.1
23	283	265.24
23.01	303	265.37
23.02	269	265.51
23.03	305	265.64
23.04	259	265.77
23.05	273	265.91
23.06	249	266.04
23.07	289	266.17
23.08	243	266.3
23.09	290	266.43
23.1	272	266.57
23.11	247	266.7
23.12	272	266.83
23.13	307	266.96
23.14	270	267.09
23.15	256	267.22
23.16	252	267.35
23.17	276	267.48
23.18	276	267.6
23.19	291	267.73
23.2	285	267.86
23.21	290	267.99
23.22	298	268.11
23.23	279	268.24
23.24	285	268.37
23.25	297	268.49
23.26	286	268.62
23.27	301	268.74
23.28	306	268.87
23.29	271	268.99
23.3	247	269.12
23.31	273	269.24
23.32	265	269.36
23.33	297	269.49
23.34	284	269.61
23.35	283	269.73
23.36	262	269.85
23.37	286	269.97
23.38	286	270.1
23.39	287	270.22
23.4	282	270.34
23.41	296	270.46
23.42	293	270.58
23.43	327	270.7
23.44	272	270.81
23.45	297	270.93
23.46	241	271.05
23.47	255	271.17
23.48	292	271.28
23.49	279	271.4
23.5	298	271.52
23.51	300	271.63
23.52	294	271.75
23.53	275	271.86
23.54	254	271.98
23.55	295	272.09
23.56	274	272.21
23.57	277	272.32
23.58	283	272.43
23.59	319	272.55
23.6	295	272.66
23.61	291	272.77
23.62	310	272.88
23.63	300	273
23.64	301	273.11
23.65	289	273.22
23.66	298	273.33
23.67	263	273.44
23.68	293	273.55
23.69	294	273.65
23.7	315	273.76
23.71	291	273.87
23.72	308	273.98
23.73	307	274.09
23.74	314	274.19
23.75	313	274.3
23.76	312	274.41
23.77	303	274.51
23.78	309	274.62
23.79	327	274.72
23.8	310	274.83
23.81	314	274.93
23.82	291	275.03
23.83	311	275.14
23.84	286	275.24
23.85	305	275.34
23.86	309	275.44
23.87	281	275.54
23.88	286	275.65
23.89	314	275.75
23.9	315	275.85
23.91	307	275.95
23.92	314	276.05
23.93	335	276.15
23.94	327	276.24
23.95	305	276.34
23.96	352	276.44
23.97	329	276.54
23.98	333	276.63
23.99	351	276.73
24	369	276.83
24.01	354	276.92
24.02	360	277.02
24.03	370	277.11
24.04	363	277.21
24.05	367	277.3
24.06	398	277.4
24.07	415	277.49
24.08	457	277.58
24.09	418	277.67
24.1	429	277.77
24.11	453	277.86
24.12	488	277.95
24.13	513	278.04
24.14	523	278.13
24.15	492	278.22
24.16	590	278.31
24.17	560	278.4
24.18	623	278.49
24.19	611	278.58
24.2	670	278.66
24.21	682	278.75
24.22	702	278.84
24.23	743	278.92
24.24	856	279.01
24.25	899	279.1
24.26	880	279.18
24.27	1011	279.27
24.28	955	279.35
24.29	980	279.43
24.3	1023	279.52
24.31	1031	279.6
24.32	1127	279.68
24.33	1108	279.76
24.34	1128	279.85
24.35	1133	279.93
24.36	1110	280.01
24.37	1046	280.09
24.38	1080	280.17
24.39	1030	280.25
24.4	1001	280.33
24.41	932	280.41
24.42	834	280.49
24.43	865	280.56
24.44	802	280.64
24.45	764	280.72
24.46	640	280.79
24.47	610	280.87
24.48	606	280.95
24.49	563	281.02
24.5	528	281.1
24.51	481	281.17
24.52	457	281.24
24.53	450	281.32
24.54	422	281.39
24.55	448	281.46
24.56	382	281.54
24.57	368	281.61
24.58	361	281.68
24.59	348	281.75
24.6	359	281.82
24.61	330	281.89
24.62	343	281.96
24.63	331	282.03
24.64	334	282.1
24.65	314	282.17
24.66	315	282.23
24.67	311	282.3
24.68	310	282.37
24.69	324	282.44
24.7	329	282.5
24.71	320	282.57
24.72	301	282.63
24.73	317	282.7
24.74	321	282.76
24.75	327	282.83
24.76	318	282.89
24.77	308	282.95
24.78	289	283.02
24.79	295	283.08
24.8	272	283.14
24.81	284	283.2
24.82	288	283.26
24.83	296	283.32
24.84	308	283.38
24.85	269	283.44
24.86	313	283.5
24.87	314	283.56
24.88	312	283.62
24.89	279	283.68
24.9	292	283.73
24.91	269	283.79
24.92	298	283.85
24.93	329	283.9
24.94	290	283.96
24.95	283	284.01
24.96	308	284.07
24.97	290	284.12
24.98	314	284.18
24.99	269	284.23
25	298	284.28
25.01	302	284.33
25.02	297	284.39
25.03	297	284.44
25.04	320	284.49
25.05	307	284.54
25.06	314	284.59
25.07	303	284.64
25.08	307	284.69
25.09	320	284.74
25.1	279	284.79
25.11	337	284.84
25.12	314	284.88
25.13	335	284.93
25.14	316	284.98
25.15	309	285.02
25.16	287	285.07
25.17	335	285.11
25.18	296	285.16
25.19	323	285.2
25.2	316	285.25
25.21	314	285.29
25.22	346	285.34
25.23	311	285.38
25.24	322	285.42
25.25	325	285.46
25.26	321	285.5
25.27	340	285.54
25.28	356	285.59
25.29	361	285.63
25.3	369	285.67
25.31	357	285.7
25.32	373	285.74
25.33	376	285.78
25.34	379	285.82
25.35	378	285.86
25.36	358	285.89
25.37	448	285.93
25.38	379	285.97
25.39	431	286
25.4	393	286.04
25.41	408	286.07
25.42	426	286.11
25.43	430	286.14
25.44	420	286.18
25.45	423	286.21
25.46	470	286.24
25.47	419	286.27
25.48	439	286.3
25.49	471	286.34
25.5	522	286.37
25.51	500	286.4
25.52	454	286.43
25.53	465	286.46
25.54	429	286.49
25.55	441	286.52
25.56	423	286.54
25.57	390	286.57
25.58	445	286.6
25.59	420	286.63
25.6	414	286.65
25.61	384	286.68
25.62	382	286.7
25.63	383	286.73
25.64	374	286.75
25.65	339	286.78
25.66	369	286.8
25.67	344	286.83
25.68	314	286.85
25.69	344	286.87
25.7	346	286.89
25.71	351	286.92
25.72	337	286.94
25.73	320	286.96
25.74	338	286.98
25.75	332	287
25.76	338	287.02
25.77	335	287.04
25.78	343	287.06
25.79	364	287.07
25.8	310	287.09
25.81	359	287.11
25.82	309	287.13
25.83	359	287.14
25.84	342	287.16
25.85	337	287.17
25.86	335	287.19
25.87	320	287.2
25.88	385	287.22
25.89	356	287.23
25.9	340	287.25
25.91	331	287.26
25.92	343	287.27
25.93	351	287.28
25.94	371	287.3
25.95	348	287.31
25.96	371	287.32
25.97	359	287.33
25.98	368	287.34
25.99	313	287.35
26	350	287.36
26.01	329	287.37
26.02	340	287.37
26.03	333	287.38
26.04	371	287.39
26.05	334	287.4
26.06	351	287.4
26.07	352	287.41
26.08	327	287.42
26.09	339	287.42
26.1	338	287.43
26.11	314	287.43
26.12	320	287.43
26.13	345	287.44
26.14	337	287.44
26.15	333	287.44
26.16	317	287.45
26.17	327	287.45
26.18	310	287.45
26.19	294	287.45
26.2	309	287.45
26.21	312	287.45
26.22	302	287.45
26.23	300	287.45
26.24	295	287.45
26.25	290	287.45
26.26	293	287.45
26.27	281	287.44
26.28	299	287.44
26.29	282	287.44
26.3	304	287.43
26.31	329	287.43
26.32	293	287.43
26.33	295	287.42
26.34	296	287.42
26.35	297	287.41
26.36	295	287.4
26.37	285	287.4
26.38	259	287.39
26.39	290	287.38
26.4	287	287.38
26.41	289	287.37
26.42	282	287.36
26.43	277	287.35
26.44	255	287.34
26.45	297	287.33
26.46	284	287.32
26.47	286	287.31
26.48	315	287.3
26.49	317	287.29
26.5	284	287.28
26.51	301	287.26
26.52	314	287.25
26.53	274	287.24
26.54	265	287.22
26.55	281	287.21
26.56	275	287.2
26.57	300	287.18
26.58	277	287.17
26.59	300	287.15
26.6	318	287.14
26.61	301	287.12
26.62	284	287.1
26.63	287	287.08
26.64	257	287.07
26.65	300	287.05
26.66	280	287.03
26.67	270	287.01
26.68	263	286.99
26.69	290	286.97
26.7	309	286.95
26.71	284	286.93
26.72	292	286.91
26.73	279	286.89
26.74	306	286.87
26.75	264	286.85
26.76	313	286.82
26.77	298	286.8
26.78	308	286.78
26.79	308	286.76
26.8	314	286.73
26.81	320	286.71
26.82	301	286.68
26.83	267	286.66
26.84	291	286.63
26.85	301	286.61
26.86	315	286.58
26.87	302	286.55
26.88	283	286.52
26.89	293	286.5
26.9	279	286.47
26.91	286	286.44
26.92	287	286.41
26.93	324	286.38
26.94	316	286.35
26.95	303	286.32
26.96	303	286.29
26.97	305	286.26
26.98	334	286.23
26.99	274	286.2
27	331	286.17
27.01	314	286.14
27.02	299	286.1
27.03	338	286.07
27.04	318	286.04
27.05	311	286
27.06	285	285.97
27.07	288	285.93
27.08	313	285.9
27.09	309	285.86
27.1	308	285.83
27.11	302	285.79
27.12	307	285.75
27.13	305	285.72
27.14	315	285.68
27.15	314	285.64
27.16	281	285.6
27.17	322	285.57
27.18	281	285.53
27.19	306	285.49
27.2	315	285.45
27.21	294	285.41
27.22	305	285.37
27.23	380	285.33
27.24	312	285.29
27.25	324	285.24
27.26	335	285.2
27.27	309	285.16
27.28	321	285.12
27.29	315	285.08
27.3	318	285.03
27.31	308	284.99
27.32	326	284.94
27.33	284	284.9
27.34	307	284.85
27.35	332	284.81
27.36	308	284.76
27.37	337	284.72
27.38	324	284.67
27.39	322	284.63
27.4	319	284.58
27.41	338	284.53
27.42	345	284.48
27.43	317	284.43
27.44	343	284.39
27.45	325	284.34
27.46	327	284.29
27.47	329	284.24
27.48	319	284.19
27.49	312	284.14
27.5	342	284.09
27.51	348	284.04
27.52	370	283.99
27.53	335	283.93
27.54	353	283.88
27.55	369	283.83
27.56	346	283.78
27.57	378	283.72
27.58	333	283.67
27.59	390	283.62
27.6	377	283.56
27.61	360	283.51
27.62	396	283.45
27.63	403	283.4
27.64	434	283.34
27.65	431	283.28
27.66	401	283.23
27.67	442	283.17
27.68	480	283.11
27.69	457	283.06
27.7	481	283
27.71	505	282.94
27.72	526	282.88
27.73	550	282.82
27.74	536	282.76
27.75	575	282.7
27.76	639	282.64
27.77	646	282.58
27.78	712	282.52
27.79	762	282.46
27.8	813	282.4
27.81	836	282.34
27.82	875	282.28
27.83	966	282.22
27.84	1048	282.15
27.85	1116	282.09
27.86	1156	282.03
27.87	1319	281.96
27.88	1440	281.9
27.89	1465	281.83
27.9	1689	281.77
27.91	1696	281.71
27.92	1968	281.64
27.93	2165	281.57
27.94	2299	281.51
27.95	2536	281.44
27.96	2705	281.38
27.97	3116	281.31
27.98	3482	281.24
27.99	3555	281.17
28	4124	281.11
28.01	4323	281.04
28.02	4843	280.97
28.03	5231	280.9
28.04	5725	280.83
28.05	6228	280.76
28.06	6541	280.69
28.07	6552	280.62
28.08	6695	280.55
28.09	6774	280.48
28.1	6535	280.41
28.11	6470	280.34
28.12	6378	280.26
28.13	5850	280.19
28.14	5454	280.12
28.15	4981	280.05
28.16	4512	279.97
28.17	4092	279.9
28.18	3930	279.83
28.19	3335	279.75
28.2	2991	279.68
28.21	2647	279.6
28.22	2264	279.53
28.23	2005	279.45
28.24	1687	279.38
28.25	1523	279.3
28.26	1381	279.22
28.27	1178	279.15
28.28	1068	279.07
28.29	949	278.99
28.3	820	278.92
28.31	723	278.84
28.32	692	278.76
28.33	641	278.68
28.34	606	278.6
28.35	591	278.52
28.36	518	278.44
28.37	518	278.36
28.38	466	278.28
28.39	435	278.2
28.4	436	278.12
28.41	422	278.04
28.42	419	277.96
28.43	386	277.88
28.44	402	277.8
28.45	387	277.72
28.46	399	277.63
28.47	361	277.55
28.48	357	277.47
28.49	376	277.38
28.5	375	277.3
28.51	354	277.22
28.52	397	277.13
28.53	353	277.05
28.54	336	276.96
28.55	329	276.88
28.56	359	276.79
28.57	356	276.71
28.58	336	276.62
28.59	339	276.53
28.6	346	276.45
28.61	301	276.36
28.62	332	276.27
28.63	341	276.19
28.64	350	276.1
28.65	306	276.01
28.66	329	275.92
28.67	319	275.83
28.68	318	275.74
28.69	296	275.66
28.7	315	275.57
28.71	312	275.48
28.72	311	275.39
28.73	307	275.3
28.74	309	275.21
28.75	309	275.12
28.76	312	275.02
28.77	283	274.93
28.78	307	274.84
28.79	313	274.75
28.8	314	274.66
28.81	299	274.56
28.82	284	274.47
28.83	306	274.38
28.84	307	274.29
28.85	288	274.19
28.86	322	274.1
28.87	310	274
28.88	292	273.91
28.89	304	273.82
28.9	320	273.72
28.91	266	273.63
28.92	322	273.53
28.93	316	273.43
28.94	280	273.34
28.95	299	273.24
28.96	276	273.15
28.97	263	273.05
28.98	306	272.95
28.99	255	272.85
29	301	272.76
29.01	285	272.66
29.02	287	272.56
29.03	287	272.46
29.04	285	272.36
29.05	296	272.27
29.06	313	272.17
29.07	287	272.07
29.08	273	271.97
29.09	314	271.87
29.1	318	271.77
29.11	310	271.67
29.12	287	271.57
29.13	310	271.47
29.14	279	271.37
29.15	258	271.26
29.16	280	271.16
29.17	320	271.06
29.18	265	270.96
29.19	275	270.86
29.2	280	270.75
29.21	311	270.65
29.22	299	270.55
29.23	266	270.45
29.24	275	270.34
29.25	274	270.24
29.26	300	270.13
29.27	295	270.03
29.28	271	269.93
29.29	310	269.82
29.3	299	269.72
29.31	270	269.61
29.32	313	269.51
29.33	309	269.4
29.34	297	269.29
29.35	286	269.19
29.36	281	269.08
29.37	268	268.97
29.38	260	268.87
29.39	261	268.76
29.4	290	268.65
29.41	278	268.55
29.42	267	268.44
29.43	281	268.33
29.44	291	268.22
29.45	278	268.11
29.46	272	268.01
29.47	265	267.9
29.48	307	267.79
29.49	287	267.68
29.5	280	267.57
29.51	222	267.46
29.52	264	267.35
29.53	262	267.24
29.54	287	267.13
29.55	269	267.02
29.56	279	266.91
29.57	277	266.8
29.58	255	266.68
29.59	281	266.57
29.6	251	266.46
29.61	277	266.35
29.62	279	266.24
29.63	250	266.13
29.64	245	266.01
29.65	268	265.9
29.66	256	265.79
29.67	235	265.67
29.68	256	265.56
29.69	262	265.45
29.7	239	265.33
29.71	263	265.22
29.72	269	265.11
29.73	281	264.99
29.74	231	264.88
29.75	289	264.76
29.76	274	264.65
29.77	285	264.53
29.78	250	264.42
29.79	244	264.3
29.8	253	264.18
29.81	245	264.07
29.82	279	263.95
29.83	282	263.84
29.84	277	263.72
29.85	232	263.6
29.86	271	263.49
29.87	249	263.37
29.88	249	263.25
29.89	263	263.13
29.9	237	263.02
29.91	290	262.9
29.92	255	262.78
29.93	258	262.66
29.94	265	262.54
29.95	253	262.43
29.96	252	262.31
29.97	274	262.19
29.98	243	262.07
29.99	257	261.95
30	242	261.83
30.01	246	261.71
30.02	247	261.59
30.03	246	261.47
30.04	259	261.35
30.05	259	261.23
30.06	263	261.11
30.07	243	260.99
30.08	272	260.87
30.09	247	260.74
30.1	248	260.62
30.11	244	260.5
30.12	258	260.38
30.13	263	260.26
30.14	266	260.14
30.15	264	260.01
30.16	287	259.89
30.17	258	259.77
30.18	261	259.65
30.19	284	259.52
30.2	247	259.4
30.21	236	259.28
30.22	257	259.15
30.23	232	259.03
30.24	241	258.91
30.25	276	258.78
30.26	268	258.66
30.27	262	258.53
30.28	266	258.41
30.29	280	258.29
30.3	257	258.16
30.31	264	258.04
30.32	281	257.91
30.33	268	257.79
30.34	269	257.66
30.35	299	257.53
30.36	271	257.41
30.37	255	257.28
30.38	274	257.16
30.39	276	257.03
30.4	291	256.9
30.41	263	256.78
30.42	253	256.65
30.43	290	256.53
30.44	295	256.4
30.45	289	256.27
30.46	266	256.14
30.47	247	256.02
30.48	262	255.89
30.49	270	255.76
30.5	254	255.63
30.51	259	255.51
30.52	276	255.38
30.53	291	255.25
30.54	241	255.12
30.55	260	254.99
30.56	245	254.86
30.57	280	254.74
30.58	267	254.61
30.59	255	254.48
30.6	282	254.35
30.61	231	254.22
30.62	260	254.09
30.63	255	253.96
30.64	260	253.83
30.65	297	253.7
30.66	265	253.57
30.67	280	253.44
30.68	261	253.31
30.69	265	253.18
30.7	263	253.05
30.71	270	252.92
30.72	241	252.79
30.73	268	252.66
30.74	253	252.53
30.75	255	252.4
30.76	275	252.26
30.77	238	252.13
30.78	247	252
30.79	261	251.87
30.8	258	251.74
30.81	255	251.61
30.82	259	251.47
30.83	280	251.34
30.84	227	251.21
30.85	234	251.08
30.86	281	250.95
30.87	257	250.81
30.88	250	250.68
30.89	232	250.55
30.9	234	250.41
30.91	269	250.28
30.92	260	250.15
30.93	262	250.02
30.94	248	249.88
30.95	237	249.75
30.96	271	249.61
30.97	245	249.48
30.98	236	249.35
30.99	286	249.21
31	233	249.08
31.01	274	248.95
31.02	257	248.81
31.03	269	248.68
31.04	273	248.54
31.05	269	248.41
31.06	292	248.27
31.07	286	248.14
31.08	243	248
31.09	253	247.87
31.1	262	247.73
31.11	286	247.6
31.12	273	247.46
31.13	261	247.33
31.14	249	247.19
31.15	288	247.06
31.16	263	246.92
31.17	281	246.79
31.18	293	246.65
31.19	293	246.51
31.2	313	246.38
31.21	265	246.24
31.22	257	246.11
31.23	278	245.97
31.24	325	245.83
31.25	292	245.7
31.26	317	245.56
31.27	318	245.42
31.28	306	245.29
31.29	298	245.15
31.3	353	245.01
31.31	337	244.88
31.32	358	244.74
31.33	359	244.6
31.34	360	244.47
31.35	360	244.33
31.36	413	244.19
31.37	382	244.05
31.38	386	243.92
31.39	421	243.78
31.4	426	243.64
31.41	453	243.5
31.42	453	243.36
31.43	470	243.23
31.44	484	243.09
31.45	513	242.95
31.46	536	242.81
31.47	546	242.67
31.48	528	242.54
31.49	527	242.4
31.5	557	242.26
31.51	546	242.12
31.52	569	241.98
31.53	545	241.84
31.54	503	241.71
31.55	500	241.57
31.56	465	241.43
31.57	487	241.29
31.58	501	241.15
31.59	444	241.01
31.6	448	240.87
31.61	410	240.73
31.62	417	240.59
31.63	400	240.45
31.64	361	240.31
31.65	324	240.18
31.66	341	240.04
31.67	343	239.9
31.68	319	239.76
31.69	322	239.62
31.7	305	239.48
31.71	317	239.34
31.72	283	239.2
31.73	256	239.06
31.74	242	238.92
31.75	286	238.78
31.76	239	238.64
31.77	286	238.5
31.78	253	238.36
31.79	231	238.22
31.8	245	238.08
31.81	258	237.94
31.82	265	237.8
31.83	271	237.66
31.84	239	237.52
31.85	250	237.38
31.86	260	237.24
31.87	264	237.1
31.88	258	236.95
31.89	221	236.81
31.9	264	236.67
31.91	268	236.53
31.92	238	236.39
31.93	248	236.25
31.94	253	236.11
31.95	233	235.97
31.96	231	235.83
31.97	244	235.69
31.98	234	235.55
31.99	202	235.41
32	249	235.26
32.01	228	235.12
32.02	212	234.98
32.03	213	234.84
32.04	228	234.7
32.05	245	234.56
32.06	254	234.42
32.07	240	234.28
32.08	225	234.14
32.09	250	233.99
32.1	219	233.85
32.11	242	233.71
32.12	214	233.57
32.13	239	233.43
32.14	261	233.29
32.15	228	233.15
32.16	260	233
32.17	226	232.86
32.18	257	232.72
32.19	241	232.58
32.2	261	232.44
32.21	210	232.3
32.22	224	232.15
32.23	236	232.01
32.24	239	231.87
32.25	233	231.73
32.26	249	231.59
32.27	209	231.45
32.28	234	231.3
32.29	225	231.16
32.3	188	231.02
32.31	241	230.88
32.32	234	230.74
32.33	221	230.6
32.34	252	230.45
32.35	235	230.31
32.36	231	230.17
32.37	228	230.03
32.38	225	229.89
32.39	237	229.74
32.4	240	229.6
32.41	236	229.46
32.42	235	229.32
32.43	246	229.18
32.44	223	229.03
32.45	230	228.89
32.46	213	228.75
32.47	230	228.61
32.48	225	228.47
32.49	234	228.32
32.5	215	228.18
32.51	221	228.04
32.52	234	227.9
32.53	237	227.76
32.54	260	227.61
32.55	232	227.47
32.56	221	227.33
32.57	238	227.19
32.58	233	227.05
32.59	261	226.9
32.6	246	226.76
32.61	236	226.62
32.62	240	226.48
32.63	234	226.34
32.64	235	226.19
32.65	221	226.05
32.66	204	225.91
32.67	216	225.77
32.68	207	225.63
32.69	227	225.49
32.7	225	225.34
32.71	209	225.2
32.72	224	225.06
32.73	207	224.92
32.74	252	224.78
32.75	258	224.63
32.76	238	224.49
32.77	229	224.35
32.78	204	224.21
32.79	198	224.07
32.8	227	223.93
32.81	251	223.78
32.82	233	223.64
32.83	224	223.5
32.84	226	223.36
32.85	211	223.22
32.86	229	223.07
32.87	243	222.93
32.88	210	222.79
32.89	220	222.65
32.9	225	222.51
32.91	213	222.37
32.92	229	222.23
32.93	209	222.08
32.94	202	221.94
32.95	246	221.8
32.96	220	221.66
32.97	227	221.52
32.98	222	221.38
32.99	208	221.24
33	255	221.09
33.01	231	220.95
33.02	214	220.81
33.03	224	220.67
33.04	232	220.53
33.05	205	220.39
33.06	218	220.25
33.07	221	220.11
33.08	236	219.96
33.09	227	219.82
33.1	214	219.68
33.11	232	219.54
33.12	268	219.4
33.13	220	219.26
33.14	212	219.12
33.15	246	218.98
33.16	220	218.84
33.17	211	218.7
33.18	236	218.56
33.19	207	218.41
33.2	226	218.27
33.21	226	218.13
33.22	213	217.99
33.23	200	217.85
33.24	211	217.71
33.25	227	217.57
33.26	226	217.43
33.27	230	217.29
33.28	235	217.15
33.29	250	217.01
33.3	199	216.87
33.31	229	216.73
33.32	204	216.59
33.33	220	216.45
33.34	242	216.31
33.35	221	216.17
33.36	210	216.03
33.37	219	215.89
33.38	207	215.75
33.39	219	215.61
33.4	223	215.47
33.41	218	215.33
33.42	224	215.19
33.43	234	215.05
33.44	213	214.91
33.45	226	214.77
33.46	249	214.63
33.47	212	214.49
33.48	240	214.35
33.49	229	214.21
33.5	226	214.08
33.51	186	213.94
33.52	199	213.8
33.53	215	213.66
33.54	212	213.52
33.55	220	213.38
33.56	203	213.24
33.57	220	213.1
33.58	228	212.96
33.59	221	212.83
33.6	217	212.69
33.61	189	212.55
33.62	208	212.41
33.63	217	212.27
33.64	239	212.13
33.65	214	211.99
33.66	199	211.86
33.67	205	211.72
33.68	208	211.58
33.69	216	211.44
33.7	208	211.3
33.71	202	211.17
33.72	223	211.03
33.73	199	210.89
33.74	196	210.75
33.75	211	210.61
33.76	215	210.48
33.77	171	210.34
33.78	207	210.2
33.79	215	210.06
33.8	194	209.93
33.81	207	209.79
33.82	205	209.65
33.83	200	209.52
33.84	223	209.38
33.85	211	209.24
33.86	235	209.1
33.87	209	208.97
33.88	220	208.83
33.89	208	208.69
33.9	194	208.56
33.91	205	208.42
33.92	196	208.29
33.93	182	208.15
33.94	249	208.01
33.95	208	207.88
33.96	224	207.74
33.97	203	207.6
33.98	212	207.47
33.99	213	207.33
34	214	207.2
34.01	175	207.06
34.02	205	206.93
34.03	187	206.79
34.04	190	206.65
34.05	203	206.52
34.06	219	206.38
34.07	206	206.25
34.08	202	206.11
34.09	190	205.98
34.1	199	205.84
34.11	213	205.71
34.12	194	205.57
34.13	197	205.44
34.14	212	205.3
34.15	224	205.17
34.16	203	205.04
34.17	215	204.9
34.18	235	204.77
34.19	202	204.63
34.2	214	204.5
34.21	211	204.36
34.22	189	204.23
34.23	208	204.1
34.24	200	203.96
34.25	226	203.83
34.26	217	203.7
34.27	211	203.56
34.28	219	203.43
34.29	199	203.3
34.3	187	203.16
34.31	204	203.03
34.32	228	202.9
34.33	206	202.76
34.34	222	202.63
34.35	234	202.5
34.36	207	202.37
34.37	227	202.23
34.38	228	202.1
34.39	237	201.97
34.4	247	201.84
34.41	246	201.7
34.42	223	201.57
34.43	252	201.44
34.44	240	201.31
34.45	265	201.18
34.46	251	201.05
34.47	284	200.91
34.48	272	200.78
34.49	281	200.65
34.5	344	200.52
34.51	332	200.39
34.52	318	200.26
34.53	297	200.13
34.54	363	200
34.55	331	199.87
34.56	431	199.73
34.57	377	199.6
34.58	366	199.47
34.59	411	199.34
34.6	407	199.21
34.61	398	199.08
34.62	470	198.95
34.63	433	198.82
34.64	415	198.69
34.65	439	198.56
34.66	429	198.44
34.67	454	198.31
34.68	434	198.18
34.69	433	198.05
34.7	391	197.92
34.71	423	197.79
34.72	418	197.66
34.73	433	197.53
34.74	414	197.4
34.75	375	197.28
34.76	351	197.15
34.77	376	197.02
34.78	330	196.89
34.79	317	196.76
34.8	304	196.63
34.81	345	196.51
34.82	271	196.38
34.83	286	196.25
34.84	259	196.12
34.85	257	196
34.86	226	195.87
34.87	209	195.74
34.88	230	195.62
34.89	236	195.49
34.9	201	195.36
34.91	235	195.24
34.92	213	195.11
34.93	198	194.98
34.94	196	194.86
34.95	204	194.73
34.96	216	194.6
34.97	198	194.48
34.98	206	194.35
34.99	186	194.23
35	210	194.1
35.01	171	193.98
35.02	202	193.85
35.03	205	193.73
35.04	184	193.6
35.05	186	193.48
35.06	207	193.35
35.07	206	193.23
35.08	213	193.1
35.09	185	192.98
35.1	224	192.85
35.11	192	192.73
35.12	203	192.6
35.13	189	192.48
35.14	208	192.36
35.15	198	192.23
35.16	186	192.11
35.17	209	191.99
35.18	211	191.86
35.19	185	191.74
35.2	182	191.62
35.21	207	191.49
35.22	189	191.37
35.23	195	191.25
35.24	181	191.13
35.25	195	191
35.26	175	190.88
35.27	199	190.76
35.28	208	190.64
35.29	205	190.52
35.3	206	190.39
35.31	183	190.27
35.32	211	190.15
35.33	201	190.03
35.34	195	189.91
35.35	210	189.79
35.36	193	189.67
35.37	172	189.55
35.38	184	189.42
35.39	180	189.3
35.4	210	189.18
35.41	192	189.06
35.42	191	188.94
35.43	163	188.82
35.44	171	188.7
35.45	192	188.58
35.46	188	188.46
35.47	190	188.35
35.48	166	188.23
35.49	179	188.11
35.5	212	187.99
35.51	189	187.87
35.52	173	187.75
35.53	171	187.63
35.54	195	187.51
35.55	176	187.39
35.56	176	187.28
35.57	188	187.16
35.58	194	187.04
35.59	185	186.92
35.6	184	186.81
35.61	207	186.69
35.62	166	186.57
35.63	185	186.45
35.64	203	186.34
35.65	190	186.22
35.66	188	186.1
35.67	200	185.99
35.68	167	185.87
35.69	172	185.75
35.7	194	185.64
35.71	184	185.52
35.72	179	185.41
35.73	180	185.29
35.74	170	185.17
35.75	187	185.06
35.76	216	184.94
35.77	181	184.83
35.78	183	184.71
35.79	164	184.6
35.8	184	184.48
35.81	150	184.37
35.82	166	184.25
35.83	180	184.14
35.84	176	184.03
35.85	162	183.91
35.86	184	183.8
35.87	188	183.68
35.88	166	183.57
35.89	178	183.46
35.9	168	183.34
35.91	190	183.23
35.92	148	183.12
35.93	171	183.01
35.94	172	182.89
35.95	166	182.78
35.96	206	182.67
35.97	146	182.56
35.98	173	182.44
35.99	197	182.33
36	164	182.22
36.01	192	182.11
36.02	163	182
36.03	178	181.89
36.04	202	181.78
36.05	168	181.66
36.06	176	181.55
36.07	181	181.44
36.08	182	181.33
36.09	184	181.22
36.1	224	181.11
36.11	181	181
36.12	177	180.89
36.13	182	180.78
36.14	188	180.67
36.15	174	180.56
36.16	177	180.45
36.17	176	180.34
36.18	185	180.24
36.19	204	180.13
36.2	184	180.02
36.21	184	179.91
36.22	174	179.8
36.23	176	179.69
36.24	188	179.59
36.25	164	179.48
36.26	184	179.37
36.27	173	179.26
36.28	183	179.15
36.29	185	179.05
36.3	161	178.94
36.31	206	178.83
36.32	191	178.73
36.33	159	178.62
36.34	150	178.51
36.35	179	178.41
36.36	187	178.3
36.37	157	178.2
36.38	166	178.09
36.39	159	177.98
36.4	177	177.88
36.41	171	177.77
36.42	173	177.67
36.43	175	177.56
36.44	164	177.46
36.45	194	177.35
36.46	159	177.25
36.47	158	177.14
36.48	191	177.04
36.49	178	176.94
36.5	191	176.83
36.51	177	176.73
36.52	193	176.63
36.53	175	176.52
36.54	162	176.42
36.55	188	176.32
36.56	176	176.21
36.57	170	176.11
36.58	192	176.01
36.59	179	175.9
36.6	174	175.8
36.61	181	175.7
36.62	169	175.6
36.63	161	175.5
36.64	159	175.4
36.65	147	175.29
36.66	175	175.19
36.67	164	175.09
36.68	167	174.99
36.69	156	174.89
36.7	173	174.79
36.71	162	174.69
36.72	152	174.59
36.73	156	174.49
36.74	188	174.39
36.75	156	174.29
36.76	156	174.19
36.77	159	174.09
36.78	161	173.99
36.79	157	173.89
36.8	176	173.79
36.81	169	173.69
36.82	167	173.59
36.83	173	173.5
36.84	157	173.4
36.85	177	173.3
36.86	177	173.2
36.87	167	173.1
36.88	166	173.01
36.89	140	172.91
36.9	153	172.81
36.91	137	172.71
36.92	163	172.62
36.93	169	172.52
36.94	173	172.42
36.95	159	172.33
36.96	156	172.23
36.97	164	172.14
36.98	173	172.04
36.99	159	171.94
37	176	171.85
37.01	164	171.75
37.02	158	171.66
37.03	144	171.56
37.04	162	171.47
37.05	160	171.37
37.06	195	171.28
37.07	156	171.18
37.08	175	171.09
37.09	149	171
37.1	152	170.9
37.11	154	170.81
37.12	172	170.71
37.13	156	170.62
37.14	160	170.53
37.15	165	170.44
37.16	173	170.34
37.17	169	170.25
37.18	180	170.16
37.19	169	170.06
37.2	157	169.97
37.21	167	169.88
37.22	162	169.79
37.23	141	169.7
37.24	157	169.61
37.25	163	169.51
37.26	161	169.42
37.27	155	169.33
37.28	140	169.24
37.29	176	169.15
37.3	156	169.06
37.31	184	168.97
37.32	188	168.88
37.33	163	168.79
37.34	153	168.7
37.35	158	168.61
37.36	154	168.52
37.37	149	168.43
37.38	164	168.34
37.39	181	168.25
37.4	161	168.17
37.41	167	168.08
37.42	171	167.99
37.43	164	167.9
37.44	177	167.81
37.45	172	167.72
37.46	144	167.64
37.47	152	167.55
37.48	188	167.46
37.49	177	167.37
37.5	178	167.29
37.51	194	167.2
37.52	175	167.11
37.53	168	167.03
37.54	144	166.94
37.55	162	166.86
37.56	174	166.77
37.57	174	166.68
37.58	175	166.6
37.59	186	166.51
37.6	161	166.43
37.61	191	166.34
37.62	173	166.26
37.63	165	166.17
37.64	174	166.09
37.65	166	166
37.66	163	165.92
37.67	166	165.84
37.68	170	165.75
37.69	154	165.67
37.7	134	165.58
37.71	157	165.5
37.72	147	165.42
37.73	150	165.33
37.74	148	165.25
37.75	177	165.17
37.76	157	165.09
37.77	137	165
37.78	176	164.92
37.79	164	164.84
37.8	165	164.76
37.81	159	164.68
37.82	176	164.6
37.83	161	164.51
37.84	174	164.43
37.85	164	164.35
37.86	170	164.27
37.87	164	164.19
37.88	160	164.11
37.89	147	164.03
37.9	155	163.95
37.91	170	163.87
37.92	164	163.79
37.93	201	163.71
37.94	164	163.63
37.95	157	163.55
37.96	184	163.47
37.97	167	163.4
37.98	157	163.32
37.99	167	163.24
38	169	163.16
38.01	189	163.08
38.02	183	163
38.03	165	162.93
38.04	147	162.85
38.05	168	162.77
38.06	162	162.69
38.07	154	162.62
38.08	161	162.54
38.09	176	162.46
38.1	178	162.39
38.11	170	162.31
38.12	161	162.23
38.13	152	162.16
38.14	183	162.08
38.15	170	162.01
38.16	186	161.93
38.17	187	161.86
38.18	162	161.78
38.19	160	161.71
38.2	174	161.63
38.21	191	161.56
38.22	170	161.48
38.23	176	161.41
38.24	194	161.33
38.25	189	161.26
38.26	192	161.19
38.27	182	161.11
38.28	195	161.04
38.29	182	160.97
38.3	189	160.89
38.31	217	160.82
38.32	238	160.75
38.33	204	160.68
38.34	248	160.6
38.35	230	160.53
38.36	273	160.46
38.37	238	160.39
38.38	264	160.32
38.39	273	160.24
38.4	256	160.17
38.41	269	160.1
38.42	289	160.03
38.43	304	159.96
38.44	330	159.89
38.45	356	159.82
38.46	358	159.75
38.47	394	159.68
38.48	396	159.61
38.49	395	159.54
38.5	442	159.47
38.51	484	159.4
38.52	491	159.33
38.53	521	159.26
38.54	504	159.19
38.55	539	159.13
38.56	568	159.06
38.57	587	158.99
38.58	635	158.92
38.59	689	158.85
38.6	660	158.79
38.61	666	158.72
38.62	686	158.65
38.63	705	158.58
38.64	658	158.52
38.65	665	158.45
38.66	661	158.38
38.67	645	158.32
38.68	690	158.25
38.69	665	158.18
38.7	622	158.12
38.71	629	158.05
38.72	605	157.99
38.73	544	157.92
38.74	594	157.86
38.75	536	157.79
38.76	508	157.73
38.77	485	157.66
38.78	453	157.6
38.79	427	157.53
38.8	406	157.47
38.81	373	157.4
38.82	364	157.34
38.83	343	157.28
38.84	290	157.21
38.85	321	157.15
38.86	271	157.09
38.87	262	157.02
38.88	270	156.96
38.89	240	156.9
38.9	243	156.83
38.91	225	156.77
38.92	209	156.71
38.93	203	156.65
38.94	205	156.59
38.95	223	156.52
38.96	215	156.46
38.97	178	156.4
38.98	205	156.34
38.99	210	156.28
39	188	156.22
39.01	168	156.16
39.02	172	156.1
39.03	179	156.04
39.04	158	155.98
39.05	190	155.92
39.06	172	155.86
39.07	175	155.8
39.08	137	155.74
39.09	175	155.68
39.1	171	155.62
39.11	165	155.56
39.12	131	155.5
39.13	174	155.44
39.14	166	155.38
39.15	155	155.33
39.16	167	155.27
39.17	183	155.21
39.18	167	155.15
39.19	173	155.09
39.2	153	155.04
39.21	158	154.98
39.22	141	154.92
39.23	161	154.87
39.24	173	154.81
39.25	162	154.75
39.26	161	154.7
39.27	181	154.64
39.28	153	154.58
39.29	139	154.53
39.3	160	154.47
39.31	135	154.42
39.32	159	154.36
39.33	184	154.31
39.34	163	154.25
39.35	167	154.2
39.36	137	154.14
39.37	173	154.09
39.38	157	154.03
39.39	159	153.98
39.4	181	153.92
39.41	153	153.87
39.42	158	153.82
39.43	178	153.76
39.44	158	153.71
39.45	167	153.66
39.46	159	153.6
39.47	144	153.55
39.48	145	153.5
39.49	152	153.45
39.5	157	153.39
39.51	157	153.34
39.52	163	153.29
39.53	166	153.24
39.54	164	153.18
39.55	164	153.13
39.56	163	153.08
39.57	148	153.03
39.58	168	152.98
39.59	152	152.93
39.6	155	152.88
39.61	164	152.83
39.62	161	152.78
39.63	131	152.73
39.64	147	152.68
39.65	169	152.63
39.66	142	152.58
39.67	170	152.53
39.68	162	152.48
39.69	152	152.43
39.7	193	152.38
39.71	150	152.33
39.72	162	152.28
39.73	137	152.23
39.74	162	152.19
39.75	160	152.14
39.76	162	152.09
39.77	150	152.04
39.78	169	151.99
39.79	138	151.95
39.8	150	151.9
39.81	159	151.85
39.82	161	151.8
39.83	160	151.76
39.84	168	151.71
39.85	161	151.66
39.86	148	151.62
39.87	176	151.57
39.88	175	151.52
39.89	152	151.48
39.9	178	151.43
39.91	176	151.39
39.92	182	151.34
39.93	173	151.3
39.94	175	151.25
39.95	161	151.21
39.96	173	151.16
39.97	168	151.12
39.98	154	151.07
39.99	175	151.03
40	153	150.98
40.01	181	150.94
40.02	180	150.89
40.03	179	150.85
40.04	175	150.81
40.05	197	150.76
40.06	229	150.72
40.07	226	150.68
40.08	223	150.63
40.09	236	150.59
40.1	248	150.55
40.11	234	150.51
40.12	227	150.46
40.13	250	150.42
40.14	256	150.38
40.15	263	150.34
40.16	248	150.3
40.17	239	150.25
40.18	277	150.21
40.19	265	150.17
40.2	243	150.13
40.21	244	150.09
40.22	245	150.05
40.23	268	150.01
40.24	277	149.97
40.25	254	149.93
40.26	251	149.89
40.27	266	149.85
40.28	220	149.81
40.29	253	149.77
40.3	213	149.73
40.31	252	149.69
40.32	230	149.65
40.33	200	149.61
40.34	221	149.57
40.35	200	149.53
40.36	198	149.49
40.37	184	149.46
40.38	234	149.42
40.39	232	149.38
40.4	159	149.34
40.41	201	149.3
40.42	164	149.27
40.43	179	149.23
40.44	181	149.19
40.45	166	149.15
40.46	174	149.12
40.47	147	149.08
40.48	187	149.04
40.49	164	149.01
40.5	160	148.97
40.51	184	148.93
40.52	183	148.9
40.53	156	148.86
40.54	147	148.82
40.55	159	148.79
40.56	149	148.75
40.57	152	148.72
40.58	157	148.68
40.59	155	148.65
40.6	155	148.61
40.61	169	148.58
40.62	152	148.54
40.63	160	148.51
40.64	144	148.47
40.65	149	148.44
40.66	145	148.4
40.67	170	148.37
40.68	160	148.34
40.69	162	148.3
40.7	161	148.27
40.71	147	148.24
40.72	154	148.2
40.73	151	148.17
40.74	149	148.14
40.75	166	148.1
40.76	150	148.07
40.77	148	148.04
40.78	137	148.01
40.79	165	147.97
40.8	157	147.94
40.81	156	147.91
40.82	158	147.88
40.83	161	147.85
40.84	188	147.81
40.85	148	147.78
40.86	163	147.75
40.87	150	147.72
40.88	165	147.69
40.89	162	147.66
40.9	154	147.63
40.91	146	147.6
40.92	160	147.57
40.93	157	147.54
40.94	169	147.51
40.95	145	147.48
40.96	156	147.45
40.97	148	147.42
40.98	173	147.39
40.99	139	147.36
41	151	147.33
41.01	160	147.3
41.02	154	147.27
41.03	165	147.24
41.04	184	147.21
41.05	180	147.18
41.06	168	147.16
41.07	168	147.13
41.08	156	147.1
41.09	160	147.07
41.1	149	147.04
41.11	162	147.02
41.12	171	146.99
41.13	187	146.96
41.14	182	146.93
41.15	166	146.91
41.16	153	146.88
41.17	159	146.85
41.18	184	146.82
41.19	148	146.8
41.2	144	146.77
41.21	160	146.75
41.22	144	146.72
41.23	168	146.69
41.24	155	146.67
41.25	170	146.64
41.26	167	146.61
41.27	156	146.59
41.28	155	146.56
41.29	151	146.54
41.3	140	146.51
41.31	165	146.49
41.32	162	146.46
41.33	152	146.44
41.34	139	146.41
41.35	194	146.39
41.36	168	146.36
41.37	175	146.34
41.38	158	146.32
41.39	158	146.29
41.4	155	146.27
41.41	174	146.24
41.42	182	146.22
41.43	137	146.2
41.44	136	146.17
41.45	178	146.15
41.46	152	146.13
41.47	196	146.1
41.48	144	146.08
41.49	154	146.06
41.5	163	146.04
41.51	145	146.01
41.52	167	145.99
41.53	129	145.97
41.54	180	145.95
41.55	141	145.92
41.56	179	145.9
41.57	165	145.88
41.58	145	145.86
41.59	151	145.84
41.6	174	145.82
41.61	155	145.79
41.62	163	145.77
41.63	161	145.75
41.64	154	145.73
41.65	149	145.71
41.66	170	145.69
41.67	155	145.67
41.68	165	145.65
41.69	155	145.63
41.7	178	145.61
41.71	160	145.59
41.72	141	145.57
41.73	150	145.55
41.74	165	145.53
41.75	185	145.51
41.76	173	145.49
41.77	161	145.47
41.78	158	145.45
41.79	163	145.43
41.8	166	145.41
41.81	155	145.39
41.82	166	145.38
41.83	148	145.36
41.84	163	145.34
41.85	157	145.32
41.86	156	145.3
41.87	144	145.28
41.88	156	145.27
41.89	168	145.25
41.9	149	145.23
41.91	164	145.21
41.92	141	145.19
41.93	165	145.18
41.94	155	145.16
41.95	181	145.14
41.96	150	145.13
41.97	165	145.11
41.98	174	145.09
41.99	174	145.07
42	168	145.06
42.01	182	145.04
42.02	165	145.03
42.03	175	145.01
42.04	186	144.99
42.05	155	144.98
42.06	150	144.96
42.07	165	144.94
42.08	160	144.93
42.09	136	144.91
42.1	146	144.9
42.11	169	144.88
42.12	162	144.87
42.13	154	144.85
42.14	158	144.84
42.15	140	144.82
42.16	166	144.81
42.17	163	144.79
42.18	178	144.78
42.19	182	144.76
42.2	156	144.75
42.21	150	144.73
42.22	169	144.72
42.23	166	144.71
42.24	184	144.69
42.25	187	144.68
42.26	181	144.66
42.27	160	144.65
42.28	189	144.64
42.29	168	144.62
42.3	190	144.61
42.31	189	144.6
42.32	159	144.58
42.33	158	144.57
42.34	196	144.56
42.35	199	144.54
42.36	186	144.53
42.37	186	144.52
42.38	201	144.51
42.39	213	144.49
42.4	203	144.48
42.41	220	144.47
42.42	205	144.46
42.43	212	144.45
42.44	226	144.43
42.45	221	144.42
42.46	202	144.41
42.47	207	144.4
42.48	227	144.39
42.49	249	144.38
42.5	254	144.36
42.51	243	144.35
42.52	268	144.34
42.53	260	144.33
42.54	313	144.32
42.55	308	144.31
42.56	324	144.3
42.57	332	144.29
42.58	342	144.28
42.59	393	144.27
42.6	426	144.26
42.61	441	144.25
42.62	452	144.24
42.63	491	144.23
42.64	529	144.22
42.65	508	144.21
42.66	533	144.2
42.67	538	144.19
42.68	533	144.18
42.69	530	144.17
42.7	540	144.16
42.71	601	144.15
42.72	599	144.14
42.73	546	144.13
42.74	552	144.12
42.75	518	144.11
42.76	543	144.1
42.77	567	144.09
42.78	506	144.09
42.79	568	144.08
42.8	518	144.07
42.81	505	144.06
42.82	472	144.05
42.83	479	144.04
42.84	530	144.04
42.85	438	144.03
42.86	424	144.02
42.87	384	144.01
42.88	435	144
42.89	383	144
42.9	376	143.99
42.91	352	143.98
42.92	353	143.97
42.93	305	143.97
42.94	299	143.96
42.95	284	143.95
42.96	314	143.95
42.97	250	143.94
42.98	289	143.93
42.99	297	143.92
43	258	143.92
43.01	228	143.91
43.02	237	143.9
43.03	229	143.9
43.04	226	143.89
43.05	197	143.89
43.06	199	143.88
43.07	237	143.87
43.08	178	143.87
43.09	172	143.86
43.1	186	143.86
43.11	164	143.85
43.12	215	143.84
43.13	158	143.84
43.14	192	143.83
43.15	166	143.83
43.16	153	143.82
43.17	166	143.82
43.18	161	143.81
43.19	154	143.81
43.2	179	143.8
43.21	166	143.8
43.22	170	143.79
43.23	192	143.79
43.24	158	143.78
43.25	166	143.78
43.26	173	143.77
43.27	161	143.77
43.28	168	143.76
43.29	152	143.76
43.3	181	143.75
43.31	158	143.75
43.32	167	143.75
43.33	149	143.74
43.34	177	143.74
43.35	171	143.73
43.36	153	143.73
43.37	168	143.73
43.38	165	143.72
43.39	171	143.72
43.4	156	143.71
43.41	140	143.71
43.42	137	143.71
43.43	176	143.7
43.44	165	143.7
43.45	172	143.7
43.46	158	143.69
43.47	137	143.69
43.48	177	143.69
43.49	159	143.69
43.5	153	143.68
43.51	171	143.68
43.52	156	143.68
43.53	163	143.67
43.54	148	143.67
43.55	156	143.67
43.56	156	143.67
43.57	174	143.66
43.58	152	143.66
43.59	162	143.66
43.6	143	143.66
43.61	162	143.66
43.62	170	143.65
43.63	169	143.65
43.64	177	143.65
43.65	167	143.65
43.66	148	143.65
43.67	146	143.64
43.68	133	143.64
43.69	158	143.64
43.7	136	143.64
43.71	176	143.64
43.72	144	143.64
43.73	154	143.64
43.74	158	143.63
43.75	142	143.63
43.76	174	143.63
43.77	155	143.63
43.78	154	143.63
43.79	173	143.63
43.8	160	143.63
43.81	152	143.63
43.82	164	143.63
43.83	141	143.62
43.84	159	143.62
43.85	170	143.62
43.86	153	143.62
43.87	145	143.62
43.88	159	143.62
43.89	151	143.62
43.9	160	143.62
43.91	165	143.62
43.92	128	143.62
43.93	169	143.62
43.94	170	143.62
43.95	149	143.62
43.96	184	143.62
43.97	143	143.62
43.98	165	143.62
43.99	156	143.62
44	175	143.62
44.01	175	143.62
44.02	148	143.62
44.03	143	143.62
44.04	181	143.62
44.05	178	143.62
44.06	155	143.62
44.07	142	143.62
44.08	154	143.62
44.09	153	143.62
44.1	150	143.62
44.11	140	143.63
44.12	165	143.63
44.13	158	143.63
44.14	135	143.63
44.15	140	143.63
44.16	158	143.63
44.17	149	143.63
44.18	179	143.63
44.19	137	143.63
44.2	158	143.63
44.21	133	143.64
44.22	164	143.64
44.23	153	143.64
44.24	133	143.64
44.25	153	143.64
44.26	169	143.64
44.27	161	143.64
44.28	134	143.65
44.29	137	143.65
44.3	161	143.65
44.31	150	143.65
44.32	148	143.65
44.33	156	143.65
44.34	154	143.66
44.35	170	143.66
44.36	164	143.66
44.37	163	143.66
44.38	148	143.66
44.39	158	143.67
44.4	162	143.67
44.41	145	143.67
44.42	149	143.67
44.43	150	143.67
44.44	151	143.68
44.45	163	143.68
44.46	159	143.68
44.47	148	143.68
44.48	159	143.69
44.49	155	143.69
44.5	150	143.69
44.51	169	143.69
44.52	162	143.7
44.53	139	143.7
44.54	142	143.7
44.55	153	143.7
44.56	133	143.71
44.57	144	143.71
44.58	168	143.71
44.59	137	143.72
44.6	134	143.72
44.61	147	143.72
44.62	165	143.72
44.63	169	143.73
44.64	169	143.73
44.65	153	143.73
44.66	157	143.74
44.67	160	143.74
44.68	143	143.74
44.69	146	143.75
44.7	165	143.75
44.71	160	143.75
44.72	154	143.75
44.73	164	143.76
44.74	125	143.76
44.75	140	143.76
44.76	148	143.77
44.77	143	143.77
44.78	138	143.78
44.79	173	143.78
44.8	153	143.78
44.81	175	143.79
44.82	170	143.79
44.83	162	143.79
44.84	151	143.8
44.85	148	143.8
44.86	150	143.8
44.87	152	143.81
44.88	149	143.81
44.89	139	143.81
44.9	153	143.82
44.91	156	143.82
44.92	167	143.83
44.93	164	143.83
44.94	149	143.83
44.95	156	143.84
44.96	142	143.84
44.97	168	143.85
44.98	138	143.85
44.99	132	143.85
45	143	143.86
45.01	155	143.86
45.02	166	143.87
45.03	159	143.87
45.04	168	143.87
45.05	162	143.88
45.06	148	143.88
45.07	147	143.89
45.08	136	143.89
45.09	155	143.89
45.1	142	143.9
45.11	157	143.9
45.12	198	143.91
45.13	156	143.91
45.14	146	143.92
45.15	150	143.92
45.16	157	143.92
45.17	182	143.93
45.18	174	143.93
45.19	159	143.94
45.2	156	143.94
45.21	149	143.95
45.22	152	143.95
45.23	159	143.96
45.24	140	143.96
45.25	141	143.96
45.26	155	143.97
45.27	137	143.97
45.28	136	143.98
45.29	134	143.98
45.3	158	143.99
45.31	147	143.99
45.32	168	144
45.33	131	144
45.34	138	144
45.35	163	144.01
45.36	142	144.01
45.37	138	144.02
45.38	143	144.02
45.39	149	144.03
45.4	164	144.03
45.41	139	144.04
45.42	137	144.04
45.43	157	144.05
45.44	151	144.05
45.45	154	144.06
45.46	153	144.06
45.47	148	144.07
45.48	151	144.07
45.49	154	144.08
45.5	113	144.08
45.51	144	144.08
45.52	169	144.09
45.53	160	144.09
45.54	156	144.1
45.55	162	144.1
45.56	134	144.11
45.57	147	144.11
45.58	150	144.12
45.59	155	144.12
45.6	156	144.13
45.61	147	144.13
45.62	174	144.14
45.63	116	144.14
45.64	162	144.15
45.65	142	144.15
45.66	161	144.16
45.67	164	144.16
45.68	165	144.17
45.69	136	144.17
45.7	150	144.18
45.71	150	144.18
45.72	147	144.19
45.73	127	144.19
45.74	173	144.2
45.75	164	144.2
45.76	145	144.21
45.77	123	144.21
45.78	140	144.22
45.79	148	144.22
45.8	134	144.23
45.81	159	144.23
45.82	150	144.23
45.83	131	144.24
45.84	164	144.24
45.85	150	144.25
45.86	143	144.25
45.87	170	144.26
45.88	142	144.26
45.89	149	144.27
45.9	154	144.27
45.91	154	144.28
45.92	142	144.28
45.93	144	144.29
45.94	150	144.29
45.95	138	144.3
45.96	145	144.3
45.97	138	144.31
45.98	153	144.31
45.99	153	144.32
46	142	144.32
46.01	154	144.33
46.02	167	144.33
46.03	140	144.34
46.04	132	144.34
46.05	155	144.35
46.06	163	144.35
46.07	117	144.36
46.08	147	144.36
46.09	133	144.36
46.1	166	144.37
46.11	147	144.37
46.12	156	144.38
46.13	132	144.38
46.14	140	144.39
46.15	119	144.39
46.16	156	144.4
46.17	134	144.4
46.18	140	144.41
46.19	150	144.41
46.2	126	144.42
46.21	130	144.42
46.22	153	144.43
46.23	153	144.43
46.24	130	144.43
46.25	147	144.44
46.26	149	144.44
46.27	144	144.45
46.28	151	144.45
46.29	157	144.46
46.3	147	144.46
46.31	141	144.47
46.32	142	144.47
46.33	160	144.47
46.34	150	144.48
46.35	144	144.48
46.36	131	144.49
46.37	138	144.49
46.38	142	144.5
46.39	145	144.5
46.4	152	144.51
46.41	143	144.51
46.42	154	144.51
46.43	147	144.52
46.44	160	144.52
46.45	157	144.53
46.46	132	144.53
46.47	146	144.54
46.48	139	144.54
46.49	141	144.54
46.5	134	144.55
46.51	156	144.55
46.52	146	144.56
46.53	143	144.56
46.54	147	144.56
46.55	128	144.57
46.56	142	144.57
46.57	124	144.58
46.58	157	144.58
46.59	148	144.58
46.6	134	144.59
46.61	145	144.59
46.62	144	144.6
46.63	158	144.6
46.64	155	144.6
46.65	154	144.61
46.66	168	144.61
46.67	158	144.61
46.68	142	144.62
46.69	138	144.62
46.7	162	144.63
46.71	132	144.63
46.72	130	144.63
46.73	146	144.64
46.74	132	144.64
46.75	156	144.64
46.76	141	144.65
46.77	152	144.65
46.78	134	144.65
46.79	143	144.66
46.8	134	144.66
46.81	149	144.66
46.82	145	144.67
46.83	143	144.67
46.84	136	144.67
46.85	146	144.68
46.86	145	144.68
46.87	149	144.68
46.88	131	144.69
46.89	134	144.69
46.9	139	144.69
46.91	163	144.7
46.92	116	144.7
46.93	140	144.7
46.94	160	144.71
46.95	142	144.71
46.96	140	144.71
46.97	140	144.71
46.98	150	144.72
46.99	150	144.72
47	135	144.72
47.01	184	144.73
47.02	160	144.73
47.03	129	144.73
47.04	140	144.73
47.05	145	144.74
47.06	152	144.74
47.07	146	144.74
47.08	140	144.74
47.09	133	144.75
47.1	135	144.75
47.11	158	144.75
47.12	143	144.75
47.13	141	144.76
47.14	162	144.76
47.15	155	144.76
47.16	167	144.76
47.17	143	144.77
47.18	138	144.77
47.19	134	144.77
47.2	152	144.77
47.21	157	144.77
47.22	153	144.78
47.23	157	144.78
47.24	133	144.78
47.25	138	144.78
47.26	147	144.78
47.27	156	144.79
47.28	163	144.79
47.29	133	144.79
47.3	152	144.79
47.31	141	144.79
47.32	168	144.79
47.33	137	144.8
47.34	150	144.8
47.35	133	144.8
47.36	137	144.8
47.37	166	144.8
47.38	188	144.8
47.39	171	144.81
47.4	147	144.81
47.41	158	144.81
47.42	165	144.81
47.43	177	144.81
47.44	175	144.81
47.45	173	144.81
47.46	183	144.81
47.47	171	144.81
47.48	175	144.82
47.49	170	144.82
47.5	190	144.82
47.51	149	144.82
47.52	153	144.82
47.53	161	144.82
47.54	178	144.82
47.55	181	144.82
47.56	160	144.82
47.57	156	144.82
47.58	176	144.82
47.59	187	144.82
47.6	162	144.82
47.61	166	144.82
47.62	163	144.82
47.63	159	144.82
47.64	144	144.83
47.65	165	144.83
47.66	154	144.83
47.67	141	144.83
47.68	153	144.83
47.69	179	144.83
47.7	147	144.83
47.71	147	144.83
47.72	134	144.83
47.73	117	144.83
47.74	160	144.83
47.75	155	144.83
47.76	169	144.83
47.77	134	144.82
47.78	157	144.82
47.79	130	144.82
47.8	142	144.82
47.81	142	144.82
47.82	141	144.82
47.83	148	144.82
47.84	159	144.82
47.85	140	144.82
47.86	147	144.82
47.87	146	144.82
47.88	142	144.82
47.89	129	144.82
47.9	145	144.82
47.91	149	144.81
47.92	141	144.81
47.93	141	144.81
47.94	141	144.81
47.95	134	144.81
47.96	146	144.81
47.97	129	144.81
47.98	136	144.81
47.99	149	144.8
48	131	144.8
48.01	138	144.8
48.02	158	144.8
48.03	150	144.8
48.04	159	144.8
48.05	124	144.79
48.06	147	144.79
48.07	164	144.79
48.08	142	144.79
48.09	163	144.79
48.1	131	144.78
48.11	156	144.78
48.12	175	144.78
48.13	138	144.78
48.14	134	144.78
48.15	140	144.77
48.16	121	144.77
48.17	138	144.77
48.18	148	144.77
48.19	145	144.76
48.2	165	144.76
48.21	121	144.76
48.22	148	144.75
48.23	123	144.75
48.24	152	144.75
48.25	135	144.75
48.26	142	144.74
48.27	140	144.74
48.28	138	144.74
48.29	148	144.73
48.3	148	144.73
48.31	159	144.73
48.32	152	144.72
48.33	149	144.72
48.34	121	144.72
48.35	141	144.71
48.36	119	144.71
48.37	150	144.71
48.38	146	144.7
48.39	131	144.7
48.4	132	144.7
48.41	131	144.69
48.42	140	144.69
48.43	143	144.68
48.44	125	144.68
48.45	149	144.68
48.46	122	144.67
48.47	137	144.67
48.48	136	144.66
48.49	151	144.66
48.5	155	144.65
48.51	149	144.65
48.52	134	144.64
48.53	134	144.64
48.54	142	144.64
48.55	137	144.63
48.56	138	144.63
48.57	145	144.62
48.58	148	144.62
48.59	123	144.61
48.6	161	144.61
48.61	151	144.6
48.62	120	144.6
48.63	121	144.59
48.64	119	144.59
48.65	138	144.58
48.66	136	144.57
48.67	133	144.57
48.68	150	144.56
48.69	163	144.56
48.7	153	144.55
48.71	146	144.55
48.72	157	144.54
48.73	127	144.53
48.74	163	144.53
48.75	138	144.52
48.76	139	144.52
48.77	140	144.51
48.78	172	144.5
48.79	136	144.5
48.8	148	144.49
48.81	141	144.48
48.82	134	144.48
48.83	139	144.47
48.84	132	144.47
48.85	146	144.46
48.86	143	144.45
48.87	157	144.44
48.88	129	144.44
48.89	130	144.43
48.9	127	144.42
48.91	126	144.42
48.92	129	144.41
48.93	149	144.4
48.94	130	144.4
48.95	151	144.39
48.96	146	144.38
48.97	157	144.37
48.98	129	144.37
48.99	150	144.36
49	126	144.35
49.01	126	144.34
49.02	136	144.33
49.03	140	144.33
49.04	144	144.32
49.05	137	144.31
49.06	163	144.3
49.07	141	144.29
49.08	132	144.29
49.09	133	144.28
49.1	140	144.27
49.11	146	144.26
49.12	121	144.25
49.13	170	144.24
49.14	160	144.24
49.15	145	144.23
49.16	139	144.22
49.17	134	144.21
49.18	132	144.2
49.19	148	144.19
49.2	133	144.18
49.21	166	144.17
49.22	131	144.16
49.23	149	144.15
49.24	160	144.14
49.25	138	144.14
49.26	137	144.13
49.27	127	144.12
49.28	148	144.11
49.29	171	144.1
49.3	140	144.09
49.31	139	144.08
49.32	167	144.07
49.33	143	144.06
49.34	183	144.05
49.35	143	144.04
49.36	155	144.03
49.37	160	144.02
49.38	131	144.01
49.39	153	144
49.4	134	143.98
49.41	156	143.97
49.42	149	143.96
49.43	162	143.95
49.44	184	143.94
49.45	145	143.93
49.46	157	143.92
49.47	170	143.91
49.48	130	143.9
49.49	167	143.89
49.5	140	143.88
49.51	167	143.86
49.52	147	143.85
49.53	179	143.84
49.54	188	143.83
49.55	158	143.82
49.56	200	143.81
49.57	170	143.79
49.58	198	143.78
49.59	186	143.77
49.6	222	143.76
49.61	210	143.75
49.62	227	143.73
49.63	223	143.72
49.64	249	143.71
49.65	235	143.7
49.66	240	143.69
49.67	213	143.67
49.68	227	143.66
49.69	251	143.65
49.7	258	143.64
49.71	249	143.62
49.72	267	143.61
49.73	277	143.6
49.74	291	143.58
49.75	308	143.57
49.76	332	143.56
49.77	298	143.54
49.78	353	143.53
49.79	323	143.52
49.8	342	143.5
49.81	358	143.49
49.82	334	143.48
49.83	373	143.46
49.84	425	143.45
49.85	406	143.43
49.86	403	143.42
49.87	404	143.41
49.88	375	143.39
49.89	407	143.38
49.9	424	143.36
49.91	377	143.35
49.92	380	143.34
49.93	385	143.32
49.94	344	143.31
49.95	345	143.29
49.96	369	143.28
49.97	328	143.26
49.98	313	143.25
49.99	357	143.23
50	351	143.22
50.01	299	143.2
50.02	289	143.19
50.03	256	143.17
50.04	285	143.16
50.05	291	143.14
50.06	236	143.13
50.07	256	143.11
50.08	257	143.09
50.09	249	143.08
50.1	237	143.06
50.11	207	143.05
50.12	192	143.03
50.13	189	143.02
50.14	192	143
50.15	178	142.98
50.16	168	142.97
50.17	178	142.95
50.18	175	142.93
50.19	153	142.92
50.2	148	142.9
50.21	179	142.88
50.22	176	142.87
50.23	165	142.85
50.24	168	142.83
50.25	152	142.82
50.26	144	142.8
50.27	148	142.78
50.28	153	142.77
50.29	172	142.75
50.3	158	142.73
50.31	156	142.71
50.32	159	142.7
50.33	165	142.68
50.34	145	142.66
50.35	164	142.64
50.36	137	142.63
50.37	161	142.61
50.38	140	142.59
50.39	153	142.57
50.4	154	142.55
50.41	132	142.54
50.42	146	142.52
50.43	136	142.5
50.44	139	142.48
50.45	169	142.46
50.46	140	142.44
50.47	142	142.43
50.48	124	142.41
50.49	130	142.39
50.5	128	142.37
50.51	140	142.35
50.52	142	142.33
50.53	141	142.31
50.54	114	142.29
50.55	154	142.27
50.56	141	142.25
50.57	147	142.24
50.58	144	142.22
50.59	154	142.2
50.6	145	142.18
50.61	140	142.16
50.62	148	142.14
50.63	142	142.12
50.64	135	142.1
50.65	155	142.08
50.66	138	142.06
50.67	128	142.04
50.68	129	142.02
50.69	149	142
50.7	135	141.98
50.71	134	141.96
50.72	129	141.94
50.73	133	141.91
50.74	154	141.89
50.75	156	141.87
50.76	110	141.85
50.77	126	141.83
50.78	149	141.81
50.79	135	141.79
50.8	145	141.77
50.81	127	141.75
50.82	119	141.73
50.83	131	141.7
50.84	140	141.68
50.85	126	141.66
50.86	134	141.64
50.87	164	141.62
50.88	143	141.6
50.89	130	141.57
50.9	151	141.55
50.91	133	141.53
50.92	129	141.51
50.93	126	141.49
50.94	149	141.46
50.95	146	141.44
50.96	132	141.42
50.97	126	141.4
50.98	143	141.37
50.99	143	141.35
51	151	141.33
51.01	130	141.31
51.02	118	141.28
51.03	139	141.26
51.04	147	141.24
51.05	142	141.21
51.06	144	141.19
51.07	131	141.17
51.08	148	141.15
51.09	148	141.12
51.1	149	141.1
51.11	135	141.08
51.12	123	141.05
51.13	120	141.03
51.14	139	141
51.15	127	140.98
51.16	123	140.96
51.17	118	140.93
51.18	146	140.91
51.19	152	140.88
51.2	133	140.86
51.21	146	140.84
51.22	122	140.81
51.23	122	140.79
51.24	121	140.76
51.25	134	140.74
51.26	134	140.71
51.27	136	140.69
51.28	139	140.66
51.29	141	140.64
51.3	130	140.61
51.31	138	140.59
51.32	140	140.56
51.33	143	140.54
51.34	133	140.51
51.35	144	140.49
51.36	148	140.46
51.37	134	140.44
51.38	131	140.41
51.39	146	140.39
51.4	132	140.36
51.41	130	140.34
51.42	128	140.31
51.43	133	140.28
51.44	163	140.26
51.45	145	140.23
51.46	116	140.21
51.47	143	140.18
51.48	152	140.15
51.49	161	140.13
51.5	155	140.1
51.51	135	140.07
51.52	139	140.05
51.53	143	140.02
51.54	177	140
51.55	137	139.97
51.56	133	139.94
51.57	145	139.92
51.58	126	139.89
51.59	123	139.86
51.6	125	139.83
51.61	174	139.81
51.62	124	139.78
51.63	155	139.75
51.64	120	139.73
51.65	152	139.7
51.66	145	139.67
51.67	154	139.64
51.68	130	139.61
51.69	148	139.59
51.7	129	139.56
51.71	148	139.53
51.72	139	139.5
51.73	147	139.48
51.74	145	139.45
51.75	169	139.42
51.76	138	139.39
51.77	142	139.36
51.78	166	139.33
51.79	150	139.31
51.8	166	139.28
51.81	149	139.25
51.82	149	139.22
51.83	137	139.19
51.84	147	139.16
51.85	151	139.13
51.86	174	139.11
51.87	171	139.08
51.88	169	139.05
51.89	151	139.02
51.9	158	138.99
51.91	169	138.96
51.92	181	138.93
51.93	185	138.9
51.94	149	138.87
51.95	190	138.84
51.96	194	138.81
51.97	168	138.78
51.98	183	138.75
51.99	158	138.73
52	175	138.7
52.01	173	138.67
52.02	182	138.64
52.03	203	138.61
52.04	199	138.58
52.05	223	138.55
52.06	197	138.52
52.07	223	138.48
52.08	225	138.45
52.09	215	138.42
52.1	229	138.39
52.11	226	138.36
52.12	269	138.33
52.13	211	138.3
52.14	269	138.27
52.15	267	138.24
52.16	267	138.21
52.17	302	138.18
52.18	266	138.15
52.19	275	138.12
52.2	265	138.09
52.21	331	138.06
52.22	345	138.02
52.23	357	137.99
52.24	326	137.96
52.25	364	137.93
52.26	367	137.9
52.27	393	137.87
52.28	363	137.84
52.29	413	137.8
52.3	391	137.77
52.31	429	137.74
52.32	383	137.71
52.33	428	137.68
52.34	423	137.65
52.35	427	137.61
52.36	408	137.58
52.37	387	137.55
52.38	403	137.52
52.39	419	137.48
52.4	442	137.45
52.41	395	137.42
52.42	384	137.39
52.43	389	137.36
52.44	363	137.32
52.45	373	137.29
52.46	345	137.26
52.47	365	137.23
52.48	371	137.19
52.49	323	137.16
52.5	310	137.13
52.51	308	137.09
52.52	317	137.06
52.53	270	137.03
52.54	282	136.99
52.55	240	136.96
52.56	285	136.93
52.57	228	136.9
52.58	246	136.86
52.59	245	136.83
52.6	230	136.8
52.61	228	136.76
52.62	224	136.73
52.63	195	136.69
52.64	215	136.66
52.65	190	136.63
52.66	179	136.59
52.67	157	136.56
52.68	181	136.53
52.69	149	136.49
52.7	179	136.46
52.71	155	136.42
52.72	187	136.39
52.73	147	136.36
52.74	151	136.32
52.75	134	136.29
52.76	133	136.25
52.77	167	136.22
52.78	141	136.19
52.79	145	136.15
52.8	144	136.12
52.81	148	136.08
52.82	137	136.05
52.83	140	136.01
52.84	135	135.98
52.85	148	135.94
52.86	139	135.91
52.87	139	135.87
52.88	130	135.84
52.89	156	135.8
52.9	139	135.77
52.91	127	135.73
52.92	160	135.7
52.93	128	135.66
52.94	156	135.63
52.95	151	135.59
52.96	160	135.56
52.97	139	135.52
52.98	112	135.49
52.99	131	135.45
53	137	135.42
53.01	127	135.38
53.02	130	135.35
53.03	145	135.31
53.04	158	135.28
53.05	122	135.24
53.06	132	135.2
53.07	130	135.17
53.08	139	135.13
53.09	134	135.1
53.1	125	135.06
53.11	138	135.03
53.12	128	134.99
53.13	128	134.95
53.14	160	134.92
53.15	139	134.88
53.16	141	134.85
53.17	155	134.81
53.18	122	134.77
53.19	137	134.74
53.2	138	134.7
53.21	139	134.67
53.22	148	134.63
53.23	141	134.59
53.24	139	134.56
53.25	142	134.52
53.26	134	134.48
53.27	129	134.45
53.28	127	134.41
53.29	139	134.37
53.3	117	134.34
53.31	146	134.3
53.32	137	134.26
53.33	159	134.23
53.34	138	134.19
53.35	139	134.15
53.36	103	134.12
53.37	121	134.08
53.38	115	134.04
53.39	131	134.01
53.4	139	133.97
53.41	121	133.93
53.42	135	133.9
53.43	134	133.86
53.44	132	133.82
53.45	118	133.78
53.46	158	133.75
53.47	119	133.71
53.48	133	133.67
53.49	127	133.64
53.5	123	133.6
53.51	142	133.56
53.52	113	133.52
53.53	146	133.49
53.54	128	133.45
53.55	141	133.41
53.56	128	133.37
53.57	133	133.34
53.58	124	133.3
53.59	107	133.26
53.6	130	133.22
53.61	134	133.19
53.62	128	133.15
53.63	149	133.11
53.64	140	133.07
53.65	142	133.04
53.66	142	133
53.67	125	132.96
53.68	156	132.92
53.69	137	132.88
53.7	110	132.85
53.71	138	132.81
53.72	127	132.77
53.73	141	132.73
53.74	159	132.7
53.75	120	132.66
53.76	122	132.62
53.77	135	132.58
53.78	140	132.54
53.79	150	132.51
53.8	125	132.47
53.81	130	132.43
53.82	146	132.39
53.83	148	132.35
53.84	151	132.32
53.85	136	132.28
53.86	164	132.24
53.87	142	132.2
53.88	141	132.16
53.89	134	132.12
53.9	129	132.09
53.91	143	132.05
53.92	147	132.01
53.93	155	131.97
53.94	134	131.93
53.95	133	131.89
53.96	143	131.86
53.97	145	131.82
53.98	129	131.78
53.99	146	131.74
54	129	131.7
54.01	127	131.66
54.02	164	131.63
54.03	129	131.59
54.04	146	131.55
54.05	139	131.51
54.06	134	131.47
54.07	153	131.43
54.08	147	131.4
54.09	130	131.36
54.1	137	131.32
54.11	153	131.28
54.12	133	131.24
54.13	127	131.2
54.14	144	131.16
54.15	151	131.13
54.16	128	131.09
54.17	141	131.05
54.18	146	131.01
54.19	152	130.97
54.2	115	130.93
54.21	140	130.89
54.22	131	130.86
54.23	168	130.82
54.24	144	130.78
54.25	143	130.74
54.26	108	130.7
54.27	138	130.66
54.28	133	130.62
54.29	157	130.58
54.3	117	130.55
54.31	150	130.51
54.32	143	130.47
54.33	130	130.43
54.34	132	130.39
54.35	159	130.35
54.36	136	130.31
54.37	131	130.28
54.38	124	130.24
54.39	119	130.2
54.4	135	130.16
54.41	132	130.12
54.42	126	130.08
54.43	133	130.04
54.44	125	130.01
54.45	120	129.97
54.46	114	129.93
54.47	140	129.89
54.48	121	129.85
54.49	139	129.81
54.5	130	129.77
54.51	130	129.74
54.52	144	129.7
54.53	138	129.66
54.54	100	129.62
54.55	124	129.58
54.56	142	129.54
54.57	129	129.5
54.58	152	129.47
54.59	123	129.43
54.6	126	129.39
54.61	120	129.35
54.62	136	129.31
54.63	135	129.27
54.64	125	129.23
54.65	142	129.2
54.66	149	129.16
54.67	141	129.12
54.68	131	129.08
54.69	133	129.04
54.7	126	129
54.71	130	128.97
54.72	125	128.93
54.73	134	128.89
54.74	133	128.85
54.75	108	128.81
54.76	132	128.77
54.77	132	128.74
54.78	144	128.7
54.79	130	128.66
54.8	120	128.62
54.81	143	128.58
54.82	138	128.54
54.83	109	128.51
54.84	127	128.47
54.85	129	128.43
54.86	121	128.39
54.87	133	128.35
54.88	126	128.32
54.89	136	128.28
54.9	133	128.24
54.91	120	128.2
54.92	129	128.16
54.93	130	128.13
54.94	115	128.09
54.95	117	128.05
54.96	135	128.01
54.97	138	127.97
54.98	132	127.94
54.99	131	127.9
55	137	127.86
55.01	144	127.82
55.02	119	127.79
55.03	139	127.75
55.04	128	127.71
55.05	115	127.67
55.06	123	127.64
55.07	137	127.6
55.08	132	127.56
55.09	128	127.52
55.1	128	127.49
55.11	109	127.45
55.12	143	127.41
55.13	126	127.37
55.14	129	127.34
55.15	129	127.3
55.16	122	127.26
55.17	144	127.22
55.18	138	127.19
55.19	138	127.15
55.2	143	127.11
55.21	127	127.08
55.22	154	127.04
55.23	152	127
55.24	129	126.97
55.25	146	126.93
55.26	152	126.89
55.27	114	126.86
55.28	138	126.82
55.29	126	126.78
55.3	106	126.74
55.31	127	126.71
55.32	136	126.67
55.33	138	126.64
55.34	117	126.6
55.35	120	126.56
55.36	158	126.53
55.37	120	126.49
55.38	133	126.45
55.39	133	126.42
55.4	116	126.38
55.41	144	126.34
55.42	135	126.31
55.43	151	126.27
55.44	130	126.24
55.45	132	126.2
55.46	136	126.16
55.47	134	126.13
55.48	124	126.09
55.49	110	126.06
55.5	114	126.02
55.51	131	125.99
55.52	135	125.95
55.53	115	125.91
55.54	126	125.88
55.55	121	125.84
55.56	133	125.81
55.57	127	125.77
55.58	132	125.74
55.59	126	125.7
55.6	145	125.67
55.61	130	125.63
55.62	140	125.6
55.63	126	125.56
55.64	115	125.53
55.65	117	125.49
55.66	127	125.46
55.67	123	125.42
55.68	138	125.39
55.69	118	125.35
55.7	117	125.32
55.71	133	125.29
55.72	142	125.25
55.73	128	125.22
55.74	131	125.18
55.75	125	125.15
55.76	132	125.12
55.77	139	125.08
55.78	125	125.05
55.79	113	125.01
55.8	114	124.98
55.81	123	124.95
55.82	130	124.91
55.83	125	124.88
55.84	126	124.84
55.85	134	124.81
55.86	147	124.78
55.87	146	124.74
55.88	120	124.71
55.89	140	124.68
55.9	136	124.65
55.91	130	124.61
55.92	126	124.58
55.93	134	124.55
55.94	118	124.51
55.95	133	124.48
55.96	136	124.45
55.97	121	124.42
55.98	148	124.38
55.99	150	124.35
56	122	124.32
56.01	116	124.29
56.02	131	124.25
56.03	148	124.22
56.04	119	124.19
56.05	123	124.16
56.06	129	124.13
56.07	130	124.09
56.08	125	124.06
56.09	113	124.03
56.1	130	124
56.11	152	123.97
56.12	119	123.94
56.13	107	123.91
56.14	123	123.88
56.15	119	123.84
56.16	131	123.81
56.17	137	123.78
56.18	133	123.75
56.19	134	123.72
56.2	153	123.69
56.21	131	123.66
56.22	140	123.63
56.23	128	123.6
56.24	120	123.57
56.25	116	123.54
56.26	135	123.51
56.27	138	123.48
56.28	141	123.45
56.29	165	123.42
56.3	141	123.39
56.31	125	123.36
56.32	128	123.33
56.33	128	123.3
56.34	152	123.27
56.35	137	123.25
56.36	134	123.22
56.37	142	123.19
56.38	144	123.16
56.39	140	123.13
56.4	128	123.1
56.41	131	123.07
56.42	132	123.05
56.43	121	123.02
56.44	139	122.99
56.45	118	122.96
56.46	142	122.93
56.47	123	122.91
56.48	138	122.88
56.49	140	122.85
56.5	110	122.82
56.51	131	122.8
56.52	128	122.77
56.53	130	122.74
56.54	145	122.72
56.55	138	122.69
56.56	149	122.66
56.57	116	122.64
56.58	122	122.61
56.59	147	122.58
56.6	140	122.56
56.61	141	122.53
56.62	139	122.5
56.63	108	122.48
56.64	126	122.45
56.65	134	122.43
56.66	136	122.4
56.67	137	122.38
56.68	130	122.35
56.69	119	122.33
56.7	151	122.3
56.71	153	122.28
56.72	131	122.25
56.73	154	122.23
56.74	115	122.2
56.75	114	122.18
56.76	159	122.15
56.77	124	122.13
56.78	142	122.11
56.79	123	122.08
56.8	130	122.06
56.81	127	122.03
56.82	122	122.01
56.83	123	121.99
56.84	103	121.97
56.85	135	121.94
56.86	128	121.92
56.87	128	121.9
56.88	126	121.87
56.89	138	121.85
56.9	148	121.83
56.91	152	121.81
56.92	119	121.79
56.93	126	121.76
56.94	136	121.74
56.95	145	121.72
56.96	135	121.7
56.97	137	121.68
56.98	146	121.66
56.99	134	121.64
57	133	121.62
57.01	139	121.59
57.02	133	121.57
57.03	142	121.55
57.04	138	121.53
57.05	149	121.51
57.06	145	121.49
57.07	124	121.47
57.08	150	121.45
57.09	124	121.43
57.1	132	121.41
57.11	140	121.39
57.12	134	121.38
57.13	138	121.36
57.14	144	121.34
57.15	120	121.32
57.16	109	121.3
57.17	137	121.28
57.18	127	121.27
57.19	144	121.25
57.2	119	121.23
57.21	140	121.21
57.22	131	121.2
57.23	143	121.18
57.24	129	121.16
57.25	131	121.15
57.26	136	121.13
57.27	129	121.11
57.28	135	121.1
57.29	138	121.08
57.3	128	121.06
57.31	139	121.05
57.32	142	121.03
57.33	140	121.01
57.34	136	121
57.35	127	120.98
57.36	132	120.97
57.37	120	120.95
57.38	132	120.94
57.39	126	120.93
57.4	135	120.91
57.41	124	120.9
57.42	118	120.88
57.43	129	120.87
57.44	154	120.86
57.45	130	120.84
57.46	122	120.83
57.47	135	120.82
57.48	131	120.8
57.49	142	120.79
57.5	135	120.78
57.51	127	120.77
57.52	138	120.75
57.53	140	120.74
57.54	144	120.73
57.55	154	120.72
57.56	126	120.71
57.57	144	120.7
57.58	141	120.68
57.59	125	120.68
57.6	123	120.66
57.61	132	120.65
57.62	145	120.64
57.63	131	120.63
57.64	138	120.62
57.65	149	120.61
57.66	153	120.61
57.67	129	120.6
57.68	127	120.59
57.69	157	120.58
57.7	148	120.57
57.71	152	120.56
57.72	142	120.55
57.73	126	120.54
57.74	149	120.54
57.75	140	120.53
57.76	142	120.52
57.77	161	120.51
57.78	155	120.51
57.79	187	120.5
57.8	151	120.49
57.81	197	120.49
57.82	177	120.48
57.83	169	120.48
57.84	186	120.47
57.85	164	120.46
57.86	184	120.46
57.87	189	120.45
57.88	188	120.45
57.89	189	120.44
57.9	225	120.44
57.91	217	120.44
57.92	223	120.43
57.93	255	120.43
57.94	259	120.42
57.95	243	120.42
57.96	277	120.42
57.97	270	120.42
57.98	296	120.41
57.99	278	120.41
58	321	120.41
58.01	307	120.41
58.02	313	120.41
58.03	346	120.4
58.04	317	120.4
58.05	282	120.4
58.06	303	120.4
58.07	317	120.4
58.08	306	120.4
58.09	304	120.4
58.1	285	120.4
58.11	269	120.4
58.12	286	120.4
58.13	292	120.4
58.14	272	120.4
58.15	281	120.4
58.16	246	120.4
58.17	259	120.41
58.18	237	120.41
58.19	242	120.41
58.2	241	120.41
58.21	231	120.41
58.22	213	120.42
58.23	206	120.42
58.24	217	120.42
58.25	199	120.43
58.26	198	120.43
58.27	198	120.44
58.28	154	120.44
58.29	180	120.45
58.3	164	120.45
58.31	167	120.46
58.32	146	120.46
58.33	172	120.47
58.34	145	120.47
58.35	179	120.48
58.36	159	120.49
58.37	173	120.49
58.38	146	120.5
58.39	134	120.51
58.4	152	120.51
58.41	135	120.52
58.42	141	120.53
58.43	166	120.54
58.44	136	120.55
58.45	148	120.56
58.46	130	120.56
58.47	141	120.58
58.48	145	120.58
58.49	144	120.59
58.5	134	120.6
58.51	119	120.62
58.52	133	120.63
58.53	142	120.64
58.54	130	120.65
58.55	134	120.66
58.56	153	120.67
58.57	145	120.68
58.58	140	120.7
58.59	135	120.71
58.6	146	120.72
58.61	121	120.73
58.62	128	120.75
58.63	128	120.76
58.64	143	120.77
58.65	137	120.79
58.66	149	120.81
58.67	125	120.82
58.68	143	120.84
58.69	138	120.85
58.7	122	120.87
58.71	139	120.88
58.72	136	120.9
58.73	129	120.92
58.74	142	120.93
58.75	136	120.95
58.76	124	120.97
58.77	149	120.98
58.78	128	121
58.79	111	121.02
58.8	155	121.04
58.81	139	121.06
58.82	140	121.08
58.83	141	121.1
58.84	132	121.11
58.85	120	121.14
58.86	135	121.16
58.87	138	121.18
58.88	136	121.2
58.89	150	121.22
58.9	150	121.24
58.91	139	121.26
58.92	141	121.29
58.93	126	121.31
58.94	108	121.33
58.95	137	121.35
58.96	130	121.38
58.97	113	121.4
58.98	146	121.43
58.99	131	121.45
59	135	121.48
59.01	135	121.5
59.02	141	121.53
59.03	162	121.55
59.04	127	121.58
59.05	157	121.6
59.06	123	121.63
59.07	131	121.66
59.08	133	121.69
59.09	123	121.71
59.1	149	121.74
59.11	131	121.77
59.12	164	121.8
59.13	162	121.82
59.14	122	121.86
59.15	138	121.89
59.16	140	121.92
59.17	134	121.94
59.18	138	121.98
59.19	126	122.01
59.2	151	122.04
59.21	123	122.07
59.22	144	122.1
59.23	129	122.13
59.24	131	122.17
59.25	129	122.2
59.26	121	122.23
59.27	145	122.26
59.28	123	122.3
59.29	134	122.33
59.3	144	122.37
59.31	136	122.4
59.32	148	122.44
59.33	150	122.48
59.34	160	122.51
59.35	113	122.55
59.36	122	122.58
59.37	138	122.62
59.38	114	122.66
59.39	152	122.7
59.4	133	122.73
59.41	120	122.77
59.42	135	122.81
59.43	143	122.85
59.44	131	122.89
59.45	146	122.93
59.46	120	122.97
59.47	136	123.01
59.48	134	123.05
59.49	151	123.09
59.5	137	123.14
59.51	137	123.18
59.52	136	123.22
59.53	128	123.26
59.54	148	123.31
59.55	169	123.35
59.56	124	123.39
59.57	157	123.44
59.58	136	123.48
59.59	137	123.53
59.6	144	123.57
59.61	127	123.62
59.62	137	123.67
59.63	144	123.71
59.64	133	123.76
59.65	140	123.81
59.66	160	123.85
59.67	146	123.9
59.68	128	123.95
59.69	130	124
59.7	132	124.05
59.71	160	124.1
59.72	149	124.15
59.73	140	124.2
59.74	158	124.25
59.75	134	124.3
59.76	139	124.35
59.77	164	124.4
59.78	158	124.46
59.79	165	124.51
59.8	158	124.56
59.81	167	124.62
59.82	167	124.67
59.83	163	124.73
59.84	167	124.78
59.85	164	124.84
59.86	158	124.89
59.87	177	124.95
59.88	181	125
59.89	167	125.06
59.9	179	125.12
59.91	180	125.17
59.92	196	125.23
59.93	180	125.29
59.94	193	125.35
59.95	208	125.41
59.96	192	125.47
59.97	222	125.53
59.98	205	125.59
59.99	204	125.65
60	208	125.71
