5	348	357.28
5.01	354	354.9
5.02	362	352.6
5.03	357	350.37
5.04	316	348.21
5.05	344	346.12
5.06	343	344.1
5.07	351	342.15
5.08	331	340.26
5.09	346	338.43
5.1	340	336.66
5.11	355	334.95
5.12	344	333.29
5.13	335	331.69
5.14	311	330.13
5.15	325	328.63
5.16	287	327.18
5.17	306	325.77
5.18	320	324.41
5.19	313	323.08
5.2	350	321.81
5.21	341	320.57
5.22	331	319.37
5.23	340	318.21
5.24	299	317.08
5.25	323	315.99
5.26	344	314.93
5.27	348	313.91
5.28	313	312.91
5.29	322	311.95
5.3	308	311.01
5.31	298	310.1
5.32	296	309.22
5.33	289	308.37
5.34	303	307.54
5.35	314	306.73
5.36	290	305.94
5.37	300	305.18
5.38	307	304.44
5.39	332	303.72
5.4	310	303.01
5.41	324	302.33
5.42	344	301.66
5.43	263	301.01
5.44	301	300.38
5.45	303	299.76
5.46	290	299.16
5.47	296	298.57
5.48	313	297.99
5.49	300	297.43
5.5	305	296.88
5.51	287	296.34
5.52	276	295.81
5.53	309	295.3
5.54	288	294.79
5.55	296	294.29
5.56	299	293.8
5.57	278	293.32
5.58	346	292.85
5.59	319	292.39
5.6	299	291.94
5.61	291	291.49
5.62	253	291.04
5.63	319	290.61
5.64	312	290.18
5.65	287	289.76
5.66	261	289.34
5.67	294	288.92
5.68	296	288.51
5.69	318	288.11
5.7	281	287.71
5.71	290	287.31
5.72	291	286.91
5.73	278	286.52
5.74	270	286.13
5.75	296	285.75
5.76	305	285.37
5.77	293	284.99
5.78	277	284.61
5.79	328	284.23
5.8	310	283.86
5.81	263	283.48
5.82	286	283.11
5.83	268	282.74
5.84	246	282.37
5.85	310	282
5.86	277	281.63
5.87	302	281.27
5.88	275	280.9
5.89	284	280.53
5.9	271	280.17
5.91	292	279.8
5.92	286	279.43
5.93	268	279.07
5.94	264	278.7
5.95	279	278.33
5.96	289	277.97
5.97	282	277.6
5.98	278	277.23
5.99	289	276.86
6	264	276.49
6.01	284	276.12
6.02	260	275.75
6.03	266	275.38
6.04	276	275.01
6.05	282	274.63
6.06	259	274.26
6.07	279	273.88
6.08	272	273.51
6.09	297	273.13
6.1	282	272.75
6.11	263	272.37
6.12	258	271.99
6.13	276	271.61
6.14	273	271.23
6.15	270	270.84
6.16	271	270.46
6.17	281	270.07
6.18	268	269.69
6.19	249	269.3
6.2	252	268.91
6.21	270	268.52
6.22	271	268.12
6.23	254	267.73
6.24	239	267.34
6.25	285	266.94
6.26	264	266.54
6.27	273	266.14
6.28	244	265.75
6.29	249	265.35
6.3	285	264.94
6.31	255	264.54
6.32	243	264.14
6.33	269	263.73
6.34	262	263.33
6.35	259	262.92
6.36	263	262.51
6.37	268	262.1
6.38	250	261.69
6.39	259	261.28
6.4	266	260.87
6.41	253	260.46
6.42	260	260.04
6.43	247	259.63
6.44	284	259.21
6.45	272	258.8
6.46	259	258.38
6.47	241	257.96
6.48	269	257.54
6.49	268	257.13
6.5	245	256.71
6.51	257	256.29
6.52	257	255.87
6.53	268	255.44
6.54	263	255.02
6.55	242	254.6
6.56	245	254.18
6.57	228	253.75
6.58	246	253.33
6.59	282	252.91
6.6	231	252.48
6.61	233	252.06
6.62	288	251.63
6.63	268	251.21
6.64	239	250.78
6.65	236	250.36
6.66	234	249.93
6.67	283	249.5
6.68	239	249.08
6.69	239	248.65
6.7	250	248.23
6.71	231	247.8
6.72	228	247.37
6.73	229	246.95
6.74	221	246.52
6.75	209	246.1
6.76	235	245.67
6.77	243	245.25
6.78	231	244.82
6.79	216	244.4
6.8	241	243.97
6.81	249	243.55
6.82	250	243.12
6.83	247	242.7
6.84	276	242.28
6.85	225	241.85
6.86	243	241.43
6.87	240	241.01
6.88	240	240.59
6.89	223	240.17
6.9	236	239.75
6.91	251	239.33
6.92	242	238.91
6.93	230	238.49
6.94	232	238.07
6.95	246	237.66
6.96	251	237.24
6.97	230	236.83
6.98	216	236.41
6.99	248	236
7	216	235.58
7.01	233	235.17
7.02	266	234.76
7.03	248	234.35
7.04	225	233.94
7.05	240	233.53
7.06	210	233.13
7.07	224	232.72
7.08	250	232.31
7.09	243	231.91
7.1	230	231.51
7.11	223	231.1
7.12	230	230.7
7.13	238	230.3
7.14	234	229.9
7.15	237	229.5
7.16	229	229.11
7.17	264	228.71
7.18	227	228.32
7.19	212	227.92
7.2	225	227.53
7.21	217	227.14
7.22	221	226.75
7.23	216	226.36
7.24	241	225.97
7.25	234	225.59
7.26	237	225.2
7.27	226	224.82
7.28	235	224.44
7.29	237	224.06
7.3	236	223.68
7.31	231	223.3
7.32	223	222.92
7.33	255	222.55
7.34	223	222.18
7.35	219	221.8
7.36	235	221.43
7.37	220	221.06
7.38	228	220.7
7.39	216	220.33
7.4	257	219.96
7.41	216	219.6
7.42	233	219.24
7.43	204	218.88
7.44	195	218.52
7.45	226	218.16
7.46	230	217.8
7.47	232	217.45
7.48	214	217.1
7.49	219	216.74
7.5	192	216.39
7.51	219	216.05
7.52	224	215.7
7.53	200	215.35
7.54	222	215.01
7.55	216	214.67
7.56	243	214.33
7.57	219	213.99
7.58	211	213.65
7.59	215	213.31
7.6	230	212.98
7.61	225	212.65
7.62	218	212.31
7.63	240	211.98
7.64	211	211.66
7.65	220	211.33
7.66	247	211
7.67	204	210.68
7.68	227	210.36
7.69	204	210.04
7.7	222	209.72
7.71	209	209.4
7.72	235	209.09
7.73	228	208.77
7.74	225	208.46
7.75	196	208.15
7.76	196	207.84
7.77	215	207.53
7.78	219	207.23
7.79	192	206.92
7.8	193	206.62
7.81	203	206.32
7.82	182	206.02
7.83	208	205.72
7.84	216	205.42
7.85	220	205.13
7.86	200	204.84
7.87	216	204.54
7.88	216	204.25
7.89	199	203.97
7.9	193	203.68
7.91	204	203.39
7.92	212	203.11
7.93	225	202.83
7.94	225	202.54
7.95	189	202.27
7.96	184	201.99
7.97	197	201.71
7.98	205	201.44
7.99	215	201.16
8	226	200.89
8.01	204	200.62
8.02	189	200.35
8.03	211	200.08
8.04	193	199.82
8.05	211	199.55
8.06	185	199.29
8.07	184	199.03
8.08	227	198.77
8.09	213	198.51
8.1	233	198.25
8.11	205	198
8.12	216	197.74
8.13	197	197.49
8.14	206	197.24
8.15	206	196.99
8.16	216	196.74
8.17	221	196.49
8.18	199	196.25
8.19	196	196
8.2	210	195.76
8.21	206	195.52
8.22	194	195.28
8.23	213	195.04
8.24	191	194.8
8.25	197	194.57
8.26	205	194.33
8.27	206	194.1
8.28	199	193.87
8.29	197	193.64
8.3	208	193.41
8.31	203	193.18
8.32	200	192.95
8.33	173	192.73
8.34	198	192.5
8.35	184	192.28
8.36	163	192.06
8.37	219	191.84
8.38	184	191.62
8.39	192	191.4
8.4	201	191.18
8.41	220	190.97
8.42	191	190.75
8.43	185	190.54
8.44	191	190.33
8.45	192	190.12
8.46	195	189.91
8.47	173	189.7
8.48	200	189.49
8.49	199	189.28
8.5	215	189.08
8.51	183	188.88
8.52	212	188.67
8.53	210	188.47
8.54	177	188.27
8.55	218	188.07
8.56	188	187.87
8.57	168	187.68
8.58	177	187.48
8.59	194	187.29
8.6	181	187.09
8.61	174	186.9
8.62	187	186.71
8.63	199	186.52
8.64	176	186.33
8.65	198	186.14
8.66	172	185.95
8.67	197	185.76
8.68	180	185.58
8.69	200	185.39
8.7	189	185.21
8.71	191	185.02
8.72	195	184.84
8.73	188	184.66
8.74	184	184.48
8.75	177	184.3
8.76	189	184.12
8.77	209	183.95
8.78	182	183.77
8.79	201	183.59
8.8	189	183.42
8.81	198	183.25
8.82	160	183.07
8.83	183	182.9
8.84	187	182.73
8.85	181	182.56
8.86	192	182.39
8.87	176	182.22
8.88	175	182.05
8.89	203	181.89
8.9	175	181.72
8.91	168	181.55
8.92	184	181.39
8.93	174	181.23
8.94	188	181.06
8.95	193	180.9
8.96	176	180.74
8.97	181	180.58
8.98	193	180.42
8.99	167	180.26
9	181	180.1
9.01	183	179.94
9.02	202	179.78
9.03	201	179.63
9.04	183	179.47
9.05	170	179.32
9.06	192	179.16
9.07	163	179.01
9.08	179	178.86
9.09	188	178.7
9.1	194	178.55
9.11	142	178.4
9.12	171	178.25
9.13	141	178.1
9.14	181	177.95
9.15	167	177.8
9.16	179	177.65
9.17	183	177.5
9.18	164	177.36
9.19	164	177.21
9.2	173	177.07
9.21	180	176.92
9.22	172	176.77
9.23	163	176.63
9.24	174	176.49
9.25	197	176.34
9.26	171	176.2
9.27	184	176.06
9.28	172	175.92
9.29	181	175.78
9.3	200	175.64
9.31	165	175.5
9.32	195	175.36
9.33	185	175.22
9.34	150	175.08
9.35	156	174.94
9.36	157	174.8
9.37	192	174.66
9.38	184	174.53
9.39	172	174.39
9.4	190	174.26
9.41	162	174.12
9.42	163	173.98
9.43	195	173.85
9.44	157	173.72
9.45	162	173.58
9.46	176	173.45
9.47	187	173.32
9.48	147	173.18
9.49	182	173.05
9.5	183	172.92
9.51	159	172.79
9.52	173	172.66
9.53	215	172.52
9.54	192	172.39
9.55	171	172.26
9.56	181	172.13
9.57	152	172
9.58	198	171.88
9.59	141	171.75
9.6	175	171.62
9.61	173	171.49
9.62	182	171.36
9.63	184	171.23
9.64	159	171.11
9.65	165	170.98
9.66	174	170.85
9.67	169	170.73
9.68	162	170.6
9.69	165	170.48
9.7	176	170.35
9.71	167	170.22
9.72	163	170.1
9.73	166	169.97
9.74	171	169.85
9.75	154	169.73
9.76	179	169.6
9.77	174	169.48
9.78	157	169.35
9.79	161	169.23
9.8	169	169.11
9.81	145	168.99
9.82	182	168.86
9.83	167	168.74
9.84	150	168.62
9.85	176	168.5
9.86	170	168.38
9.87	183	168.25
9.88	183	168.13
9.89	164	168.01
9.9	173	167.89
9.91	149	167.77
9.92	150	167.65
9.93	158	167.53
9.94	177	167.41
9.95	164	167.29
9.96	169	167.17
9.97	161	167.05
9.98	142	166.93
9.99	183	166.81
10	176	166.69
10.01	144	166.57
10.02	137	166.45
10.03	167	166.33
10.04	177	166.22
10.05	189	166.1
10.06	149	165.98
10.07	157	165.86
10.08	160	165.74
10.09	156	165.63
10.1	159	165.51
10.11	148	165.39
10.12	148	165.27
10.13	154	165.16
10.14	177	165.04
10.15	169	164.92
10.16	151	164.8
10.17	151	164.69
10.18	158	164.57
10.19	155	164.45
10.2	136	164.34
10.21	133	164.22
10.22	164	164.1
10.23	170	163.99
10.24	167	163.87
10.25	152	163.76
10.26	145	163.64
10.27	169	163.52
10.28	159	163.41
10.29	172	163.29
10.3	164	163.18
10.31	160	163.06
10.32	159	162.95
10.33	170	162.83
10.34	173	162.72
10.35	174	162.6
10.36	175	162.49
10.37	172	162.37
10.38	166	162.26
10.39	165	162.14
10.4	155	162.03
10.41	151	161.91
10.42	154	161.8
10.43	168	161.68
10.44	179	161.57
10.45	177	161.45
10.46	174	161.34
10.47	154	161.23
10.48	143	161.11
10.49	169	161
10.5	155	160.88
10.51	150	160.77
10.52	172	160.66
10.53	161	160.54
10.54	180	160.43
10.55	171	160.32
10.56	154	160.2
10.57	167	160.09
10.58	165	159.97
10.59	165	159.86
10.6	149	159.75
10.61	154	159.63
10.62	150	159.52
10.63	163	159.41
10.64	153	159.29
10.65	146	159.18
10.66	168	159.07
10.67	144	158.96
10.68	156	158.84
10.69	148	158.73
10.7	141	158.62
10.71	150	158.5
10.72	166	158.39
10.73	142	158.28
10.74	138	158.17
10.75	136	158.05
10.76	158	157.94
10.77	153	157.83
10.78	155	157.72
10.79	153	157.6
10.8	148	157.49
10.81	155	157.38
10.82	143	157.27
10.83	155	157.15
10.84	165	157.04
10.85	147	156.93
10.86	180	156.82
10.87	163	156.71
10.88	162	156.59
10.89	143	156.48
10.9	157	156.37
10.91	173	156.26
10.92	168	156.15
10.93	155	156.04
10.94	133	155.92
10.95	159	155.81
10.96	172	155.7
10.97	153	155.59
10.98	158	155.48
10.99	145	155.37
11	152	155.26
11.01	169	155.14
11.02	160	155.03
11.03	154	154.92
11.04	152	154.81
11.05	138	154.7
11.06	153	154.59
11.07	157	154.48
11.08	169	154.37
11.09	149	154.26
11.1	160	154.15
11.11	148	154.04
11.12	134	153.92
11.13	165	153.81
11.14	155	153.7
11.15	145	153.59
11.16	144	153.48
11.17	179	153.37
11.18	160	153.26
11.19	159	153.15
11.2	148	153.04
11.21	124	152.93
11.22	141	152.82
11.23	144	152.71
11.24	148	152.6
11.25	155	152.49
11.26	163	152.39
11.27	168	152.28
11.28	140	152.17
11.29	132	152.06
11.3	160	151.95
11.31	151	151.84
11.32	160	151.73
11.33	160	151.62
11.34	139	151.51
11.35	158	151.4
11.36	147	151.3
11.37	135	151.19
11.38	129	151.08
11.39	160	150.97
11.4	155	150.86
11.41	181	150.75
11.42	130	150.65
11.43	149	150.54
11.44	180	150.43
11.45	153	150.32
11.46	147	150.21
11.47	162	150.11
11.48	131	150
11.49	127	149.89
11.5	164	149.79
11.51	161	149.68
11.52	168	149.57
11.53	165	149.46
11.54	136	149.36
11.55	152	149.25
11.56	154	149.14
11.57	158	149.04
11.58	160	148.93
11.59	143	148.83
11.6	153	148.72
11.61	154	148.61
11.62	143	148.51
11.63	140	148.4
11.64	146	148.3
11.65	159	148.19
11.66	121	148.09
11.67	179	147.98
11.68	157	147.88
11.69	130	147.77
11.7	128	147.67
11.71	136	147.56
11.72	145	147.46
11.73	154	147.35
11.74	129	147.25
11.75	154	147.14
11.76	145	147.04
11.77	127	146.94
11.78	131	146.83
11.79	156	146.73
11.8	139	146.63
11.81	132	146.52
11.82	155	146.42
11.83	150	146.32
11.84	146	146.22
11.85	159	146.11
11.86	156	146.01
11.87	169	145.91
11.88	146	145.81
11.89	145	145.71
11.9	137	145.6
11.91	150	145.5
11.92	146	145.4
11.93	143	145.3
11.94	137	145.2
11.95	152	145.1
11.96	146	145
11.97	134	144.9
11.98	149	144.8
11.99	152	144.7
12	148	144.6
12.01	164	144.5
12.02	148	144.4
12.03	127	144.3
12.04	131	144.2
12.05	152	144.1
12.06	139	144
12.07	168	143.9
12.08	140	143.81
12.09	120	143.71
12.1	136	143.61
12.11	151	143.51
12.12	152	143.42
12.13	120	143.32
12.14	153	143.22
12.15	147	143.12
12.16	132	143.03
12.17	151	142.93
12.18	138	142.84
12.19	132	142.74
12.2	128	142.64
12.21	151	142.55
12.22	150	142.45
12.23	154	142.36
12.24	147	142.26
12.25	151	142.17
12.26	149	142.07
12.27	170	141.98
12.28	159	141.89
12.29	128	141.79
12.3	154	141.7
12.31	157	141.61
12.32	142	141.51
12.33	135	141.42
12.34	135	141.33
12.35	107	141.24
12.36	140	141.14
12.37	126	141.05
12.38	136	140.96
12.39	132	140.87
12.4	152	140.78
12.41	148	140.69
12.42	136	140.6
12.43	143	140.51
12.44	133	140.42
12.45	142	140.33
12.46	130	140.24
12.47	137	140.15
12.48	146	140.06
12.49	151	139.97
12.5	134	139.89
12.51	151	139.8
12.52	131	139.71
12.53	127	139.62
12.54	118	139.54
12.55	143	139.45
12.56	153	139.36
12.57	149	139.28
12.58	163	139.19
12.59	153	139.1
12.6	148	139.02
12.61	141	138.93
12.62	156	138.85
12.63	137	138.76
12.64	128	138.68
12.65	155	138.6
12.66	153	138.51
12.67	145	138.43
12.68	146	138.35
12.69	159	138.26
12.7	154	138.18
12.71	140	138.1
12.72	150	138.02
12.73	168	137.94
12.74	171	137.85
12.75	141	137.77
12.76	147	137.69
12.77	164	137.61
12.78	156	137.53
12.79	152	137.45
12.8	172	137.37
12.81	160	137.3
12.82	161	137.22
12.83	172	137.14
12.84	170	137.06
12.85	137	136.98
12.86	149	136.91
12.87	167	136.83
12.88	173	136.75
12.89	154	136.68
12.9	162	136.6
12.91	174	136.52
12.92	161	136.45
12.93	153	136.37
12.94	162	136.3
12.95	169	136.22
12.96	159	136.15
12.97	159	136.08
12.98	169	136
12.99	154	135.93
13	175	135.86
13.01	158	135.79
13.02	146	135.71
13.03	169	135.64
13.04	148	135.57
13.05	147	135.5
13.06	163	135.43
13.07	185	135.36
13.08	161	135.29
13.09	159	135.22
13.1	148	135.15
13.11	160	135.08
13.12	184	135.01
13.13	161	134.95
13.14	166	134.88
13.15	151	134.81
13.16	161	134.75
13.17	155	134.68
13.18	152	134.61
13.19	138	134.55
13.2	139	134.48
13.21	139	134.42
13.22	170	134.35
13.23	153	134.29
13.24	156	134.22
13.25	138	134.16
13.26	159	134.1
13.27	135	134.04
13.28	140	133.97
13.29	148	133.91
13.3	152	133.85
13.31	141	133.79
13.32	147	133.73
13.33	136	133.67
13.34	167	133.61
13.35	150	133.55
13.36	150	133.49
13.37	144	133.43
13.38	148	133.37
13.39	132	133.31
13.4	128	133.26
13.41	158	133.2
13.42	163	133.14
13.43	171	133.09
13.44	134	133.03
13.45	125	132.97
13.46	124	132.92
13.47	138	132.86
13.48	131	132.81
13.49	143	132.76
13.5	156	132.7
13.51	151	132.65
13.52	138	132.6
13.53	144	132.54
13.54	141	132.49
13.55	167	132.44
13.56	127	132.39
13.57	145	132.34
13.58	158	132.29
13.59	162	132.24
13.6	145	132.19
13.61	139	132.14
13.62	139	132.09
13.63	147	132.04
13.64	162	132
13.65	136	131.95
13.66	152	131.9
13.67	161	131.85
13.68	161	131.81
13.69	142	131.76
13.7	160	131.72
13.71	150	131.67
13.72	151	131.63
13.73	150	131.58
13.74	185	131.54
13.75	162	131.5
13.76	168	131.46
13.77	171	131.41
13.78	143	131.37
13.79	154	131.33
13.8	176	131.29
13.81	157	131.25
13.82	181	131.21
13.83	166	131.17
13.84	173	131.13
13.85	179	131.09
13.86	185	131.05
13.87	159	131.01
13.88	201	130.98
13.89	161	130.94
13.9	221	130.9
13.91	222	130.87
13.92	211	130.83
13.93	209	130.8
13.94	195	130.76
13.95	214	130.73
13.96	207	130.69
13.97	208	130.66
13.98	228	130.63
13.99	227	130.59
14	277	130.56
14.01	249	130.53
14.02	236	130.5
14.03	236	130.47
14.04	262	130.44
14.05	269	130.41
14.06	276	130.38
14.07	262	130.35
14.08	304	130.32
14.09	303	130.29
14.1	327	130.26
14.11	329	130.24
14.12	349	130.21
14.13	397	130.18
14.14	396	130.16
14.15	373	130.13
14.16	393	130.11
14.17	460	130.08
14.18	456	130.06
14.19	475	130.03
14.2	466	130.01
14.21	534	129.99
14.22	529	129.96
14.23	555	129.94
14.24	620	129.92
14.25	625	129.9
14.26	692	129.88
14.27	752	129.86
14.28	747	129.84
14.29	841	129.82
14.3	834	129.8
14.31	938	129.78
14.32	1069	129.76
14.33	1052	129.75
14.34	1158	129.73
14.35	1198	129.71
14.36	1230	129.7
14.37	1412	129.68
14.38	1463	129.67
14.39	1553	129.65
14.4	1728	129.64
14.41	1734	129.62
14.42	1845	129.61
14.43	1936	129.6
14.44	2090	129.59
14.45	2157	129.57
14.46	2192	129.56
14.47	2203	129.55
14.48	2218	129.54
14.49	2015	129.53
14.5	2157	129.52
14.51	1924	129.51
14.52	1684	129.5
14.53	1565	129.49
14.54	1383	129.49
14.55	1186	129.48
14.56	968	129.47
14.57	885	129.47
14.58	760	129.46
14.59	644	129.45
14.6	561	129.45
14.61	499	129.44
14.62	421	129.44
14.63	376	129.44
14.64	335	129.43
14.65	352	129.43
14.66	329	129.43
14.67	285	129.42
14.68	255	129.42
14.69	246	129.42
14.7	272	129.42
14.71	214	129.42
14.72	204	129.42
14.73	186	129.42
14.74	183	129.42
14.75	185	129.43
14.76	181	129.43
14.77	163	129.43
14.78	174	129.43
14.79	162	129.44
14.8	161	129.44
14.81	172	129.44
14.82	155	129.45
14.83	169	129.45
14.84	162	129.46
14.85	140	129.47
14.86	148	129.47
14.87	155	129.48
14.88	141	129.49
14.89	153	129.5
14.9	149	129.5
14.91	147	129.51
14.92	143	129.52
14.93	130	129.53
14.94	155	129.54
14.95	135	129.55
14.96	147	129.56
14.97	128	129.58
14.98	129	129.59
14.99	147	129.6
15	139	129.61
15.01	142	129.63
15.02	133	129.64
15.03	136	129.65
15.04	135	129.67
15.05	134	129.68
15.06	135	129.7
15.07	136	129.72
15.08	129	129.73
15.09	121	129.75
15.1	169	129.77
15.11	146	129.78
15.12	128	129.8
15.13	134	129.82
15.14	144	129.84
15.15	135	129.86
15.16	136	129.88
15.17	140	129.9
15.18	111	129.92
15.19	155	129.94
15.2	152	129.96
15.21	119	129.99
15.22	145	130.01
15.23	135	130.03
15.24	137	130.06
15.25	142	130.08
15.26	145	130.1
15.27	137	130.13
15.28	134	130.15
15.29	138	130.18
15.3	131	130.21
15.31	153	130.23
15.32	141	130.26
15.33	118	130.29
15.34	127	130.31
15.35	147	130.34
15.36	137	130.37
15.37	136	130.4
15.38	118	130.43
15.39	161	130.46
15.4	124	130.49
15.41	140	130.52
15.42	141	130.55
15.43	141	130.58
15.44	133	130.62
15.45	136	130.65
15.46	134	130.68
15.47	135	130.71
15.48	135	130.75
15.49	131	130.78
15.5	134	130.82
15.51	129	130.85
15.52	144	130.89
15.53	141	130.92
15.54	143	130.96
15.55	119	131
15.56	131	131.03
15.57	120	131.07
15.58	148	131.11
15.59	131	131.15
15.6	171	131.19
15.61	131	131.22
15.62	118	131.26
15.63	132	131.3
15.64	136	131.34
15.65	126	131.39
15.66	112	131.43
15.67	138	131.47
15.68	124	131.51
15.69	136	131.55
15.7	152	131.6
15.71	125	131.64
15.72	131	131.68
15.73	120	131.73
15.74	121	131.77
15.75	126	131.82
15.76	121	131.86
15.77	144	131.91
15.78	139	131.95
15.79	134	132
15.8	132	132.05
15.81	125	132.09
15.82	142	132.14
15.83	139	132.19
15.84	118	132.24
15.85	115	132.29
15.86	164	132.34
15.87	137	132.38
15.88	145	132.43
15.89	134	132.49
15.9	125	132.54
15.91	124	132.59
15.92	137	132.64
15.93	138	132.69
15.94	122	132.74
15.95	114	132.8
15.96	137	132.85
15.97	138	132.9
15.98	142	132.96
15.99	149	133.01
16	145	133.06
16.01	127	133.12
16.02	142	133.17
16.03	128	133.23
16.04	138	133.29
16.05	140	133.34
16.06	154	133.4
16.07	119	133.46
16.08	139	133.51
16.09	132	133.57
16.1	135	133.63
16.11	125	133.69
16.12	134	133.75
16.13	140	133.81
16.14	136	133.87
16.15	118	133.93
16.16	127	133.99
16.17	131	134.05
16.18	146	134.11
16.19	137	134.17
16.2	137	134.23
16.21	148	134.3
16.22	141	134.36
16.23	162	134.42
16.24	176	134.48
16.25	136	134.55
16.26	141	134.61
16.27	148	134.68
16.28	127	134.74
16.29	129	134.81
16.3	138	134.87
16.31	140	134.94
16.32	150	135
16.33	130	135.07
16.34	123	135.14
16.35	117	135.2
16.36	127	135.27
16.37	122	135.34
16.38	124	135.41
16.39	124	135.48
16.4	129	135.54
16.41	163	135.61
16.42	133	135.68
16.43	124	135.75
16.44	124	135.82
16.45	132	135.89
16.46	126	135.96
16.47	121	136.04
16.48	125	136.11
16.49	138	136.18
16.5	134	136.25
16.51	126	136.32
16.52	142	136.4
16.53	162	136.47
16.54	149	136.54
16.55	149	136.62
16.56	131	136.69
16.57	120	136.77
16.58	134	136.84
16.59	137	136.92
16.6	146	136.99
16.61	151	137.07
16.62	124	137.14
16.63	142	137.22
16.64	144	137.29
16.65	136	137.37
16.66	139	137.45
16.67	117	137.53
16.68	145	137.6
16.69	142	137.68
16.7	137	137.76
16.71	126	137.84
16.72	147	137.92
16.73	134	138
16.74	135	138.08
16.75	141	138.16
16.76	144	138.24
16.77	121	138.32
16.78	128	138.4
16.79	135	138.48
16.8	139	138.56
16.81	125	138.64
16.82	154	138.72
16.83	146	138.81
16.84	138	138.89
16.85	150	138.97
16.86	156	139.05
16.87	158	139.14
16.88	139	139.22
16.89	116	139.31
16.9	148	139.39
16.91	127	139.47
16.92	141	139.56
16.93	138	139.64
16.94	135	139.73
16.95	152	139.81
16.96	135	139.9
16.97	135	139.99
16.98	144	140.07
16.99	131	140.16
17	138	140.25
17.01	169	140.33
17.02	141	140.42
17.03	165	140.51
17.04	127	140.6
17.05	136	140.68
17.06	128	140.77
17.07	146	140.86
17.08	120	140.95
17.09	118	141.04
17.1	151	141.13
17.11	119	141.22
17.12	139	141.31
17.13	144	141.4
17.14	145	141.49
17.15	140	141.58
17.16	147	141.67
17.17	145	141.76
17.18	137	141.85
17.19	160	141.94
17.2	127	142.04
17.21	145	142.13
17.22	134	142.22
17.23	130	142.31
17.24	130	142.41
17.25	158	142.5
17.26	126	142.59
17.27	131	142.69
17.28	128	142.78
17.29	144	142.87
17.3	143	142.97
17.31	139	143.06
17.32	124	143.16
17.33	132	143.25
17.34	145	143.35
17.35	151	143.44
17.36	124	143.54
17.37	138	143.63
17.38	141	143.73
17.39	150	143.83
17.4	130	143.92
17.41	145	144.02
17.42	135	144.12
17.43	152	144.21
17.44	164	144.31
17.45	155	144.41
17.46	153	144.5
17.47	126	144.6
17.48	154	144.7
17.49	133	144.8
17.5	132	144.9
17.51	121	145
17.52	142	145.09
17.53	154	145.19
17.54	120	145.29
17.55	139	145.39
17.56	143	145.49
17.57	139	145.59
17.58	126	145.69
17.59	149	145.79
17.6	139	145.89
17.61	135	145.99
17.62	152	146.09
17.63	157	146.19
17.64	140	146.3
17.65	140	146.4
17.66	133	146.5
17.67	144	146.6
17.68	147	146.7
17.69	164	146.8
17.7	142	146.91
17.71	131	147.01
17.72	147	147.11
17.73	129	147.21
17.74	170	147.32
17.75	138	147.42
17.76	132	147.52
17.77	161	147.63
17.78	142	147.73
17.79	137	147.83
17.8	163	147.94
17.81	143	148.04
17.82	143	148.14
17.83	153	148.25
17.84	152	148.35
17.85	150	148.46
17.86	146	148.56
17.87	142	148.67
17.88	151	148.77
17.89	148	148.88
17.9	172	148.98
17.91	145	149.09
17.92	136	149.19
17.93	151	149.3
17.94	148	149.41
17.95	161	149.51
17.96	144	149.62
17.97	153	149.72
17.98	137	149.83
17.99	130	149.94
18	142	150.04
18.01	155	150.15
18.02	142	150.26
18.03	127	150.37
18.04	141	150.47
18.05	147	150.58
18.06	155	150.69
18.07	162	150.8
18.08	150	150.9
18.09	148	151.01
18.1	175	151.12
18.11	136	151.23
18.12	143	151.34
18.13	153	151.44
18.14	149	151.55
18.15	153	151.66
18.16	135	151.77
18.17	158	151.88
18.18	164	151.99
18.19	163	152.1
18.2	157	152.21
18.21	139	152.31
18.22	144	152.42
18.23	156	152.53
18.24	138	152.64
18.25	138	152.75
18.26	158	152.86
18.27	147	152.97
18.28	142	153.08
18.29	143	153.19
18.3	162	153.3
18.31	143	153.41
18.32	164	153.52
18.33	152	153.63
18.34	168	153.74
18.35	161	153.85
18.36	152	153.97
18.37	149	154.08
18.38	137	154.19
18.39	146	154.3
18.4	180	154.41
18.41	156	154.52
18.42	151	154.63
18.43	163	154.74
18.44	150	154.85
18.45	141	154.97
18.46	142	155.08
18.47	141	155.19
18.48	158	155.3
18.49	163	155.41
18.5	156	155.52
18.51	141	155.64
18.52	149	155.75
18.53	154	155.86
18.54	152	155.97
18.55	153	156.08
18.56	136	156.2
18.57	175	156.31
18.58	154	156.42
18.59	163	156.53
18.6	146	156.65
18.61	138	156.76
18.62	144	156.87
18.63	168	156.98
18.64	150	157.1
18.65	156	157.21
18.66	156	157.32
18.67	146	157.43
18.68	150	157.55
18.69	149	157.66
18.7	140	157.77
18.71	148	157.89
18.72	151	158
18.73	166	158.11
18.74	148	158.22
18.75	159	158.34
18.76	154	158.45
18.77	130	158.56
18.78	161	158.68
18.79	146	158.79
18.8	171	158.9
18.81	149	159.02
18.82	148	159.13
18.83	174	159.24
18.84	150	159.36
18.85	163	159.47
18.86	150	159.58
18.87	145	159.7
18.88	146	159.81
18.89	162	159.92
18.9	164	160.04
18.91	157	160.15
18.92	156	160.26
18.93	170	160.38
18.94	148	160.49
18.95	142	160.61
18.96	151	160.72
18.97	167	160.83
18.98	151	160.95
18.99	163	161.06
19	169	161.17
19.01	152	161.29
19.02	169	161.4
19.03	150	161.51
19.04	151	161.63
19.05	171	161.74
19.06	147	161.86
19.07	165	161.97
19.08	143	162.08
19.09	154	162.2
19.1	120	162.31
19.11	152	162.42
19.12	180	162.54
19.13	161	162.65
19.14	171	162.77
19.15	179	162.88
19.16	151	162.99
19.17	152	163.11
19.18	166	163.22
19.19	137	163.33
19.2	154	163.45
19.21	170	163.56
19.22	163	163.67
19.23	153	163.79
19.24	179	163.9
19.25	162	164.01
19.26	152	164.13
19.27	178	164.24
19.28	146	164.35
19.29	175	164.47
19.3	156	164.58
19.31	166	164.69
19.32	161	164.81
19.33	153	164.92
19.34	145	165.03
19.35	163	165.15
19.36	158	165.26
19.37	174	165.37
19.38	148	165.49
19.39	166	165.6
19.4	172	165.71
19.41	148	165.83
19.42	156	165.94
19.43	156	166.05
19.44	162	166.16
19.45	185	166.28
19.46	152	166.39
19.47	165	166.5
19.48	186	166.62
19.49	175	166.73
19.5	152	166.84
19.51	177	166.95
19.52	175	167.07
19.53	170	167.18
19.54	165	167.29
19.55	171	167.4
19.56	181	167.52
19.57	188	167.63
19.58	166	167.74
19.59	160	167.85
19.6	154	167.96
19.61	147	168.08
19.62	185	168.19
19.63	165	168.3
19.64	160	168.41
19.65	181	168.52
19.66	161	168.63
19.67	155	168.75
19.68	174	168.86
19.69	164	168.97
19.7	172	169.08
19.71	166	169.19
19.72	187	169.3
19.73	176	169.41
19.74	185	169.52
19.75	158	169.64
19.76	173	169.75
19.77	148	169.86
19.78	177	169.97
19.79	168	170.08
19.8	205	170.19
19.81	173	170.3
19.82	165	170.41
19.83	142	170.52
19.84	174	170.63
19.85	189	170.74
19.86	174	170.85
19.87	171	170.96
19.88	177	171.07
19.89	186	171.18
19.9	169	171.29
19.91	168	171.4
19.92	174	171.51
19.93	195	171.62
19.94	154	171.73
19.95	202	171.84
19.96	176	171.95
19.97	178	172.06
19.98	194	172.17
19.99	182	172.27
20	180	172.38
20.01	171	172.49
20.02	182	172.6
20.03	189	172.71
20.04	180	172.82
20.05	177	172.93
20.06	185	173.03
20.07	193	173.14
20.08	225	173.25
20.09	169	173.36
20.1	195	173.46
20.11	196	173.57
20.12	193	173.68
20.13	207	173.79
20.14	213	173.89
20.15	209	174
20.16	226	174.11
20.17	203	174.22
20.18	227	174.32
20.19	243	174.43
20.2	216	174.54
20.21	229	174.64
20.22	244	174.75
20.23	231	174.85
20.24	245	174.96
20.25	257	175.07
20.26	271	175.17
20.27	271	175.28
20.28	293	175.38
20.29	268	175.49
20.3	252	175.59
20.31	319	175.7
20.32	283	175.8
20.33	289	175.91
20.34	285	176.01
20.35	311	176.12
20.36	308	176.22
20.37	298	176.33
20.38	278	176.43
20.39	285	176.54
20.4	309	176.64
20.41	239	176.74
20.42	281	176.85
20.43	264	176.95
20.44	249	177.05
20.45	223	177.16
20.46	225	177.26
20.47	238	177.36
20.48	198	177.47
20.49	209	177.57
20.5	209	177.67
20.51	190	177.77
20.52	209	177.88
20.53	215	177.98
20.54	167	178.08
20.55	183	178.18
20.56	203	178.28
20.57	188	178.38
20.58	198	178.49
20.59	193	178.59
20.6	181	178.69
20.61	173	178.79
20.62	194	178.89
20.63	151	178.99
20.64	178	179.09
20.65	174	179.19
20.66	195	179.29
20.67	194	179.39
20.68	215	179.49
20.69	167	179.59
20.7	179	179.69
20.71	176	179.79
20.72	222	179.89
20.73	179	179.99
20.74	190	180.09
20.75	168	180.18
20.76	170	180.28
20.77	195	180.38
20.78	214	180.48
20.79	178	180.58
20.8	170	180.68
20.81	208	180.77
20.82	187	180.87
20.83	189	180.97
20.84	167	181.06
20.85	198	181.16
20.86	171	181.26
20.87	189	181.35
20.88	186	181.45
20.89	199	181.55
20.9	202	181.64
20.91	181	181.74
20.92	177	181.84
20.93	190	181.93
20.94	159	182.03
20.95	175	182.12
20.96	211	182.22
20.97	178	182.31
20.98	174	182.41
20.99	151	182.5
21	176	182.59
21.01	165	182.69
21.02	202	182.78
21.03	195	182.88
21.04	182	182.97
21.05	200	183.06
21.06	193	183.16
21.07	190	183.25
21.08	188	183.34
21.09	184	183.43
21.1	175	183.53
21.11	175	183.62
21.12	168	183.71
21.13	182	183.8
21.14	202	183.89
21.15	185	183.98
21.16	170	184.08
21.17	193	184.17
21.18	195	184.26
21.19	184	184.35
21.2	190	184.44
21.21	203	184.53
21.22	193	184.62
21.23	183	184.71
21.24	168	184.8
21.25	167	184.89
21.26	194	184.98
21.27	195	185.07
21.28	168	185.15
21.29	176	185.24
21.3	211	185.33
21.31	189	185.42
21.32	182	185.51
21.33	189	185.6
21.34	186	185.68
21.35	201	185.77
21.36	189	185.86
21.37	204	185.94
21.38	182	186.03
21.39	195	186.12
21.4	174	186.2
21.41	196	186.29
21.42	199	186.38
21.43	206	186.46
21.44	199	186.55
21.45	179	186.63
21.46	182	186.72
21.47	192	186.8
21.48	197	186.89
21.49	231	186.97
21.5	186	187.06
21.51	192	187.14
21.52	207	187.22
21.53	194	187.31
21.54	162	187.39
21.55	174	187.47
21.56	193	187.56
21.57	186	187.64
21.58	192	187.72
21.59	196	187.8
21.6	185	187.88
21.61	178	187.97
21.62	187	188.05
21.63	186	188.13
21.64	196	188.21
21.65	209	188.29
21.66	186	188.37
21.67	181	188.45
21.68	187	188.53
21.69	202	188.61
21.7	193	188.69
21.71	194	188.77
21.72	198	188.85
21.73	175	188.93
21.74	192	189.01
21.75	199	189.09
21.76	195	189.17
21.77	176	189.24
21.78	174	189.32
21.79	208	189.4
21.8	193	189.48
21.81	177	189.55
21.82	197	189.63
21.83	179	189.71
21.84	176	189.78
21.85	182	189.86
21.86	207	189.94
21.87	219	190.01
21.88	182	190.09
21.89	215	190.16
21.9	229	190.24
21.91	198	190.31
21.92	203	190.39
21.93	214	190.46
21.94	189	190.54
21.95	200	190.61
21.96	207	190.68
21.97	193	190.76
21.98	160	190.83
21.99	165	190.9
22	203	190.98
22.01	194	191.05
22.02	199	191.12
22.03	218	191.19
22.04	224	191.27
22.05	178	191.34
22.06	192	191.41
22.07	208	191.48
22.08	191	191.55
22.09	214	191.62
22.1	178	191.69
22.11	178	191.76
22.12	190	191.83
22.13	165	191.9
22.14	188	191.97
22.15	206	192.04
22.16	205	192.11
22.17	182	192.18
22.18	176	192.24
22.19	207	192.31
22.2	182	192.38
22.21	148	192.45
22.22	197	192.52
22.23	187	192.58
22.24	191	192.65
22.25	198	192.72
22.26	197	192.78
22.27	207	192.85
22.28	212	192.91
22.29	199	192.98
22.3	228	193.04
22.31	202	193.11
22.32	224	193.17
22.33	204	193.24
22.34	202	193.3
22.35	194	193.37
22.36	189	193.43
22.37	209	193.5
22.38	191	193.56
22.39	215	193.62
22.4	191	193.68
22.41	186	193.75
22.42	182	193.81
22.43	200	193.87
22.44	196	193.93
22.45	221	193.99
22.46	184	194.06
22.47	180	194.12
22.48	199	194.18
22.49	185	194.24
22.5	196	194.3
22.51	199	194.36
22.52	201	194.42
22.53	221	194.48
22.54	197	194.54
22.55	202	194.6
22.56	196	194.65
22.57	208	194.71
22.58	197	194.77
22.59	197	194.83
22.6	170	194.89
22.61	210	194.94
22.62	197	195
22.63	229	195.06
22.64	191	195.11
22.65	220	195.17
22.66	196	195.23
22.67	199	195.28
22.68	164	195.34
22.69	203	195.39
22.7	223	195.45
22.71	206	195.5
22.72	212	195.56
22.73	218	195.61
22.74	188	195.67
22.75	191	195.72
22.76	212	195.77
22.77	209	195.83
22.78	189	195.88
22.79	191	195.93
22.8	196	195.98
22.81	216	196.04
22.82	221	196.09
22.83	175	196.14
22.84	232	196.19
22.85	216	196.24
22.86	213	196.29
22.87	225	196.34
22.88	208	196.39
22.89	211	196.44
22.9	239	196.49
22.91	204	196.54
22.92	187	196.59
22.93	203	196.64
22.94	244	196.69
22.95	207	196.74
22.96	181	196.78
22.97	186	196.83
22.98	191	196.88
22.99	207	196.93
23	209	196.97
23.01	208	197.02
23.02	196	197.07
23.03	229	197.11
23.04	195	197.16
23.05	197	197.2
23.06	221	197.25
23.07	209	197.29
23.08	221	197.34
23.09	202	197.38
23.1	211	197.43
23.11	214	197.47
23.12	209	197.52
23.13	214	197.56
23.14	202	197.6
23.15	205	197.65
23.16	191	197.69
23.17	216	197.73
23.18	227	197.77
23.19	194	197.81
23.2	187	197.86
23.21	223	197.9
23.22	200	197.94
23.23	212	197.98
23.24	202	198.02
23.25	248	198.06
23.26	189	198.1
23.27	184	198.14
23.28	204	198.18
23.29	192	198.22
23.3	210	198.26
23.31	197	198.3
23.32	197	198.33
23.33	191	198.37
23.34	181	198.41
23.35	198	198.45
23.36	201	198.48
23.37	191	198.52
23.38	195	198.56
23.39	212	198.59
23.4	214	198.63
23.41	218	198.67
23.42	235	198.7
23.43	226	198.74
23.44	206	198.77
23.45	194	198.81
23.46	218	198.84
23.47	228	198.87
23.48	210	198.91
23.49	226	198.94
23.5	192	198.98
23.51	201	199.01
23.52	220	199.04
23.53	216	199.07
23.54	235	199.11
23.55	233	199.14
23.56	244	199.17
23.57	213	199.2
23.58	225	199.23
23.59	222	199.26
23.6	215	199.29
23.61	226	199.32
23.62	210	199.35
23.63	212	199.38
23.64	232	199.41
23.65	237	199.44
23.66	230	199.47
23.67	242	199.5
23.68	255	199.53
23.69	259	199.56
23.7	230	199.58
23.71	272	199.61
23.72	250	199.64
23.73	281	199.66
23.74	277	199.69
23.75	262	199.72
23.76	307	199.74
23.77	276	199.77
23.78	308	199.8
23.79	303	199.82
23.8	330	199.85
23.81	284	199.87
23.82	312	199.89
23.83	326	199.92
23.84	361	199.94
23.85	341	199.97
23.86	338	199.99
23.87	338	200.01
23.88	325	200.04
23.89	306	200.06
23.9	300	200.08
23.91	299	200.1
23.92	292	200.12
23.93	296	200.15
23.94	293	200.17
23.95	264	200.19
23.96	266	200.21
23.97	253	200.23
23.98	254	200.25
23.99	239	200.27
24	246	200.29
24.01	213	200.31
24.02	222	200.33
24.03	193	200.34
24.04	231	200.36
24.05	250	200.38
24.06	221	200.4
24.07	216	200.42
24.08	220	200.43
24.09	235	200.45
24.1	220	200.47
24.11	214	200.48
24.12	189	200.5
24.13	194	200.52
24.14	226	200.53
24.15	211	200.55
24.16	217	200.56
24.17	232	200.58
24.18	233	200.59
24.19	215	200.61
24.2	217	200.62
24.21	210	200.63
24.22	219	200.65
24.23	181	200.66
24.24	233	200.67
24.25	195	200.68
24.26	199	200.7
24.27	210	200.71
24.28	210	200.72
24.29	191	200.73
24.3	181	200.74
24.31	198	200.75
24.32	202	200.77
24.33	194	200.78
24.34	206	200.79
24.35	216	200.8
24.36	206	200.81
24.37	225	200.81
24.38	198	200.82
24.39	215	200.83
24.4	217	200.84
24.41	204	200.85
24.42	215	200.86
24.43	235	200.86
24.44	216	200.87
24.45	216	200.88
24.46	229	200.89
24.47	247	200.89
24.48	227	200.9
24.49	217	200.9
24.5	207	200.91
24.51	225	200.92
24.52	219	200.92
24.53	215	200.93
24.54	204	200.93
24.55	218	200.93
24.56	199	200.94
24.57	238	200.94
24.58	215	200.95
24.59	228	200.95
24.6	227	200.95
24.61	231	200.96
24.62	234	200.96
24.63	238	200.96
24.64	250	200.96
24.65	224	200.96
24.66	224	200.97
24.67	232	200.97
24.68	243	200.97
24.69	238	200.97
24.7	243	200.97
24.71	256	200.97
24.72	237	200.97
24.73	252	200.97
24.74	291	200.97
24.75	277	200.97
24.76	285	200.96
24.77	273	200.96
24.78	309	200.96
24.79	320	200.96
24.8	291	200.96
24.81	323	200.95
24.82	288	200.95
24.83	290	200.95
24.84	313	200.94
24.85	324	200.94
24.86	298	200.94
24.87	346	200.93
24.88	323	200.93
24.89	317	200.92
24.9	330	200.92
24.91	319	200.91
24.92	313	200.91
24.93	274	200.9
24.94	289	200.9
24.95	252	200.89
24.96	297	200.88
24.97	289	200.88
24.98	261	200.87
24.99	254	200.86
25	247	200.85
25.01	234	200.85
25.02	245	200.84
25.03	245	200.83
25.04	255	200.82
25.05	210	200.81
25.06	222	200.8
25.07	214	200.79
25.08	199	200.78
25.09	220	200.77
25.1	209	200.76
25.11	195	200.75
25.12	183	200.74
25.13	202	200.73
25.14	217	200.72
25.15	203	200.71
25.16	212	200.69
25.17	182	200.68
25.18	236	200.67
25.19	205	200.66
25.2	223	200.64
25.21	220	200.63
25.22	203	200.62
25.23	203	200.6
25.24	184	200.59
25.25	207	200.58
25.26	235	200.56
25.27	203	200.55
25.28	239	200.53
25.29	204	200.52
25.3	206	200.5
25.31	215	200.49
25.32	215	200.47
25.33	183	200.45
25.34	219	200.44
25.35	215	200.42
25.36	201	200.4
25.37	222	200.39
25.38	185	200.37
25.39	190	200.35
25.4	215	200.33
25.41	211	200.31
25.42	198	200.3
25.43	183	200.28
25.44	218	200.26
25.45	236	200.24
25.46	203	200.22
25.47	200	200.2
25.48	222	200.18
25.49	213	200.16
25.5	207	200.14
25.51	230	200.12
25.52	184	200.1
25.53	205	200.08
25.54	212	200.05
25.55	179	200.03
25.56	210	200.01
25.57	197	199.99
25.58	205	199.96
25.59	187	199.94
25.6	212	199.92
25.61	207	199.9
25.62	226	199.87
25.63	188	199.85
25.64	219	199.82
25.65	216	199.8
25.66	182	199.78
25.67	221	199.75
25.68	214	199.73
25.69	215	199.7
25.7	184	199.67
25.71	225	199.65
25.72	206	199.62
25.73	197	199.6
25.74	189	199.57
25.75	213	199.54
25.76	194	199.52
25.77	231	199.49
25.78	200	199.46
25.79	203	199.43
25.8	204	199.41
25.81	203	199.38
25.82	202	199.35
25.83	198	199.32
25.84	204	199.29
25.85	214	199.26
25.86	204	199.23
25.87	234	199.2
25.88	199	199.17
25.89	186	199.14
25.9	189	199.11
25.91	223	199.08
25.92	224	199.05
25.93	188	199.02
25.94	196	198.99
25.95	217	198.96
25.96	200	198.92
25.97	206	198.89
25.98	204	198.86
25.99	209	198.83
26	206	198.79
26.01	205	198.76
26.02	214	198.73
26.03	216	198.7
26.04	200	198.66
26.05	198	198.63
26.06	224	198.59
26.07	208	198.56
26.08	186	198.52
26.09	207	198.49
26.1	202	198.45
26.11	196	198.42
26.12	197	198.38
26.13	205	198.35
26.14	174	198.31
26.15	178	198.27
26.16	188	198.24
26.17	174	198.2
26.18	198	198.16
26.19	219	198.13
26.2	198	198.09
26.21	208	198.05
26.22	200	198.01
26.23	195	197.98
26.24	179	197.94
26.25	202	197.9
26.26	188	197.86
26.27	196	197.82
26.28	194	197.78
26.29	198	197.74
26.3	201	197.7
26.31	186	197.66
26.32	182	197.62
26.33	212	197.58
26.34	195	197.54
26.35	188	197.5
26.36	222	197.46
26.37	212	197.42
26.38	190	197.38
26.39	191	197.33
26.4	206	197.29
26.41	224	197.25
26.42	188	197.21
26.43	204	197.17
26.44	196	197.12
26.45	199	197.08
26.46	212	197.04
26.47	212	196.99
26.48	216	196.95
26.49	197	196.91
26.5	202	196.86
26.51	207	196.82
26.52	198	196.77
26.53	190	196.73
26.54	206	196.68
26.55	190	196.64
26.56	193	196.59
26.57	200	196.55
26.58	210	196.5
26.59	173	196.45
26.6	181	196.41
26.61	176	196.36
26.62	221	196.31
26.63	200	196.27
26.64	181	196.22
26.65	198	196.17
26.66	194	196.12
26.67	216	196.08
26.68	195	196.03
26.69	184	195.98
26.7	210	195.93
26.71	206	195.88
26.72	220	195.83
26.73	204	195.78
26.74	211	195.74
26.75	218	195.69
26.76	197	195.64
26.77	188	195.59
26.78	174	195.54
26.79	176	195.49
26.8	202	195.43
26.81	200	195.38
26.82	205	195.33
26.83	199	195.28
26.84	194	195.23
26.85	184	195.18
26.86	186	195.13
26.87	179	195.07
26.88	200	195.02
26.89	199	194.97
26.9	182	194.92
26.91	187	194.86
26.92	210	194.81
26.93	177	194.76
26.94	190	194.7
26.95	189	194.65
26.96	209	194.6
26.97	209	194.54
26.98	206	194.49
26.99	196	194.43
27	218	194.38
27.01	165	194.32
27.02	177	194.27
27.03	197	194.21
27.04	179	194.16
27.05	184	194.1
27.06	195	194.05
27.07	211	193.99
27.08	201	193.93
27.09	198	193.88
27.1	196	193.82
27.11	166	193.77
27.12	200	193.71
27.13	181	193.65
27.14	211	193.59
27.15	188	193.54
27.16	183	193.48
27.17	173	193.42
27.18	193	193.36
27.19	169	193.3
27.2	185	193.24
27.21	179	193.19
27.22	208	193.13
27.23	198	193.07
27.24	215	193.01
27.25	198	192.95
27.26	200	192.89
27.27	213	192.83
27.28	196	192.77
27.29	201	192.71
27.3	199	192.65
27.31	212	192.59
27.32	192	192.53
27.33	189	192.47
27.34	194	192.4
27.35	192	192.34
27.36	205	192.28
27.37	196	192.22
27.38	189	192.16
27.39	210	192.1
27.4	201	192.03
27.41	184	191.97
27.42	174	191.91
27.43	187	191.84
27.44	177	191.78
27.45	182	191.72
27.46	189	191.66
27.47	179	191.59
27.48	177	191.53
27.49	175	191.46
27.5	180	191.4
27.51	213	191.34
27.52	169	191.27
27.53	188	191.21
27.54	205	191.14
27.55	198	191.08
27.56	208	191.01
27.57	183	190.95
27.58	186	190.88
27.59	195	190.81
27.6	202	190.75
27.61	184	190.68
27.62	213	190.62
27.63	187	190.55
27.64	185	190.48
27.65	200	190.42
27.66	207	190.35
27.67	196	190.28
27.68	195	190.21
27.69	191	190.15
27.7	173	190.08
27.71	194	190.01
27.72	183	189.94
27.73	185	189.88
27.74	215	189.81
27.75	158	189.74
27.76	226	189.67
27.77	199	189.6
27.78	192	189.53
27.79	205	189.46
27.8	180	189.39
27.81	198	189.32
27.82	190	189.25
27.83	177	189.18
27.84	198	189.11
27.85	167	189.04
27.86	180	188.97
27.87	192	188.9
27.88	220	188.83
27.89	209	188.76
27.9	195	188.69
27.91	211	188.62
27.92	213	188.55
27.93	181	188.48
27.94	196	188.41
27.95	177	188.33
27.96	215	188.26
27.97	185	188.19
27.98	209	188.12
27.99	199	188.05
28	227	187.97
28.01	234	187.9
28.02	191	187.83
28.03	219	187.75
28.04	178	187.68
28.05	177	187.61
28.06	216	187.53
28.07	181	187.46
28.08	199	187.39
28.09	197	187.31
28.1	194	187.24
28.11	187	187.16
28.12	191	187.09
28.13	198	187.02
28.14	198	186.94
28.15	197	186.87
28.16	212	186.79
28.17	186	186.72
28.18	198	186.64
28.19	212	186.57
28.2	191	186.49
28.21	198	186.41
28.22	196	186.34
28.23	209	186.26
28.24	205	186.19
28.25	195	186.11
28.26	190	186.03
28.27	184	185.96
28.28	207	185.88
28.29	212	185.8
28.3	198	185.73
28.31	215	185.65
28.32	221	185.57
28.33	220	185.49
28.34	216	185.42
28.35	224	185.34
28.36	249	185.26
28.37	206	185.18
28.38	220	185.1
28.39	236	185.03
28.4	219	184.95
28.41	244	184.87
28.42	240	184.79
28.43	216	184.71
28.44	232	184.63
28.45	232	184.55
28.46	271	184.47
28.47	260	184.39
28.48	292	184.31
28.49	266	184.23
28.5	282	184.15
28.51	257	184.07
28.52	271	183.99
28.53	299	183.91
28.54	300	183.83
28.55	296	183.75
28.56	328	183.67
28.57	344	183.59
28.58	346	183.51
28.59	353	183.43
28.6	370	183.35
28.61	389	183.27
28.62	407	183.19
28.63	398	183.1
28.64	427	183.02
28.65	436	182.94
28.66	494	182.86
28.67	504	182.78
28.68	556	182.69
28.69	594	182.61
28.7	619	182.53
28.71	648	182.45
28.72	671	182.36
28.73	791	182.28
28.74	776	182.2
28.75	844	182.12
28.76	902	182.03
28.77	896	181.95
28.78	926	181.87
28.79	944	181.78
28.8	973	181.7
28.81	955	181.61
28.82	921	181.53
28.83	884	181.45
28.84	865	181.36
28.85	826	181.28
28.86	771	181.19
28.87	762	181.11
28.88	704	181.02
28.89	654	180.94
28.9	569	180.85
28.91	520	180.77
28.92	501	180.68
28.93	474	180.6
28.94	432	180.51
28.95	403	180.43
28.96	328	180.34
28.97	323	180.26
28.98	334	180.17
28.99	280	180.09
29	263	180
29.01	268	179.91
29.02	247	179.83
29.03	267	179.74
29.04	265	179.65
29.05	231	179.57
29.06	226	179.48
29.07	216	179.39
29.08	228	179.31
29.09	189	179.22
29.1	226	179.13
29.11	204	179.05
29.12	213	178.96
29.13	185	178.87
29.14	205	178.78
29.15	168	178.7
29.16	188	178.61
29.17	193	178.52
29.18	198	178.43
29.19	192	178.34
29.2	176	178.26
29.21	210	178.17
29.22	186	178.08
29.23	200	177.99
29.24	198	177.9
29.25	178	177.81
29.26	170	177.72
29.27	190	177.64
29.28	191	177.55
29.29	188	177.46
29.3	178	177.37
29.31	195	177.28
29.32	190	177.19
29.33	212	177.1
29.34	187	177.01
29.35	193	176.92
29.36	177	176.83
29.37	176	176.74
29.38	186	176.65
29.39	208	176.56
29.4	179	176.47
29.41	156	176.38
29.42	201	176.29
29.43	202	176.2
29.44	193	176.11
29.45	178	176.02
29.46	185	175.93
29.47	196	175.84
29.48	191	175.75
29.49	177	175.65
29.5	176	175.56
29.51	182	175.47
29.52	177	175.38
29.53	180	175.29
29.54	168	175.2
29.55	180	175.11
29.56	193	175.02
29.57	187	174.92
29.58	160	174.83
29.59	167	174.74
29.6	204	174.65
29.61	197	174.56
29.62	172	174.46
29.63	194	174.37
29.64	194	174.28
29.65	186	174.19
29.66	183	174.09
29.67	176	174
29.68	227	173.91
29.69	180	173.82
29.7	196	173.72
29.71	163	173.63
29.72	184	173.54
29.73	175	173.44
29.74	198	173.35
29.75	173	173.26
29.76	174	173.17
29.77	162	173.07
29.78	213	172.98
29.79	161	172.88
29.8	179	172.79
29.81	186	172.7
29.82	170	172.6
29.83	185	172.51
29.84	191	172.42
29.85	189	172.32
29.86	167	172.23
29.87	162	172.13
29.88	179	172.04
29.89	185	171.95
29.9	167	171.85
29.91	185	171.76
29.92	174	171.66
29.93	175	171.57
29.94	184	171.47
29.95	168	171.38
29.96	166	171.28
29.97	161	171.19
29.98	184	171.09
29.99	189	171
30	174	170.9
30.01	166	170.81
30.02	179	170.71
30.03	214	170.62
30.04	185	170.52
30.05	167	170.43
30.06	189	170.33
30.07	177	170.24
30.08	160	170.14
30.09	174	170.05
30.1	188	169.95
30.11	191	169.85
30.12	177	169.76
30.13	178	169.66
30.14	158	169.57
30.15	193	169.47
30.16	162	169.37
30.17	191	169.28
30.18	191	169.18
30.19	181	169.09
30.2	173	168.99
30.21	178	168.89
30.22	170	168.8
30.23	175	168.7
30.24	180	168.6
30.25	147	168.51
30.26	170	168.41
30.27	197	168.31
30.28	175	168.22
30.29	181	168.12
30.3	164	168.02
30.31	183	167.93
30.32	193	167.83
30.33	178	167.73
30.34	172	167.63
30.35	186	167.54
30.36	153	167.44
30.37	161	167.34
30.38	179	167.25
30.39	176	167.15
30.4	155	167.05
30.41	179	166.95
30.42	177	166.86
30.43	177	166.76
30.44	176	166.66
30.45	196	166.56
30.46	158	166.47
30.47	163	166.37
30.48	180	166.27
30.49	166	166.17
30.5	177	166.07
30.51	189	165.98
30.52	149	165.88
30.53	171	165.78
30.54	193	165.68
30.55	192	165.58
30.56	159	165.49
30.57	161	165.39
30.58	162	165.29
30.59	166	165.19
30.6	191	165.09
30.61	181	164.99
30.62	189	164.9
30.63	183	164.8
30.64	155	164.7
30.65	188	164.6
30.66	184	164.5
30.67	174	164.4
30.68	171	164.3
30.69	191	164.21
30.7	179	164.11
30.71	161	164.01
30.72	170	163.91
30.73	163	163.81
30.74	171	163.71
30.75	182	163.61
30.76	153	163.51
30.77	194	163.41
30.78	182	163.31
30.79	163	163.22
30.8	185	163.12
30.81	174	163.02
30.82	176	162.92
30.83	170	162.82
30.84	173	162.72
30.85	178	162.62
30.86	181	162.52
30.87	168	162.42
30.88	182	162.32
30.89	173	162.22
30.9	174	162.12
30.91	170	162.02
30.92	176	161.92
30.93	162	161.82
30.94	178	161.73
30.95	148	161.63
30.96	188	161.53
30.97	171	161.43
30.98	156	161.33
30.99	184	161.23
31	150	161.13
31.01	182	161.03
31.02	163	160.93
31.03	180	160.83
31.04	165	160.73
31.05	192	160.63
31.06	165	160.53
31.07	162	160.43
31.08	151	160.33
31.09	184	160.23
31.1	182	160.13
31.11	187	160.03
31.12	177	159.93
31.13	196	159.83
31.14	173	159.73
31.15	159	159.63
31.16	170	159.53
31.17	182	159.43
31.18	167	159.33
31.19	177	159.23
31.2	169	159.13
31.21	178	159.03
31.22	183	158.93
31.23	204	158.83
31.24	173	158.73
31.25	182	158.63
31.26	189	158.53
31.27	166	158.42
31.28	187	158.32
31.29	184	158.22
31.3	177	158.12
31.31	193	158.02
31.32	200	157.92
31.33	176	157.82
31.34	182	157.72
31.35	180	157.62
31.36	181	157.52
31.37	183	157.42
31.38	161	157.32
31.39	180	157.22
31.4	202	157.12
31.41	178	157.02
31.42	186	156.92
31.43	199	156.82
31.44	210	156.72
31.45	159	156.62
31.46	150	156.52
31.47	190	156.42
31.48	163	156.31
31.49	167	156.21
31.5	155	156.11
31.51	174	156.01
31.52	172	155.91
31.53	190	155.81
31.54	162	155.71
31.55	201	155.61
31.56	185	155.51
31.57	147	155.41
31.58	174	155.31
31.59	178	155.21
31.6	178	155.11
31.61	154	155.01
31.62	161	154.91
31.63	169	154.8
31.64	164	154.7
31.65	170	154.6
31.66	173	154.5
31.67	214	154.4
31.68	176	154.3
31.69	181	154.2
31.7	169	154.1
31.71	175	154
31.72	184	153.9
31.73	183	153.8
31.74	167	153.7
31.75	172	153.6
31.76	187	153.5
31.77	178	153.4
31.78	181	153.29
31.79	195	153.19
31.8	157	153.09
31.81	174	152.99
31.82	175	152.89
31.83	175	152.79
31.84	191	152.69
31.85	186	152.59
31.86	197	152.49
31.87	200	152.39
31.88	210	152.29
31.89	231	152.19
31.9	233	152.09
31.91	198	151.99
31.92	196	151.89
31.93	224	151.78
31.94	234	151.68
31.95	206	151.58
31.96	233	151.48
31.97	216	151.38
31.98	236	151.28
31.99	235	151.18
32	272	151.08
32.01	247	150.98
32.02	268	150.88
32.03	258	150.78
32.04	268	150.68
32.05	290	150.58
32.06	300	150.48
32.07	305	150.38
32.08	333	150.28
32.09	345	150.18
32.1	356	150.08
32.11	400	149.98
32.12	382	149.87
32.13	432	149.77
32.14	443	149.67
32.15	482	149.57
32.16	472	149.47
32.17	479	149.37
32.18	498	149.27
32.19	526	149.17
32.2	546	149.07
32.21	527	148.97
32.22	579	148.87
32.23	598	148.77
32.24	571	148.67
32.25	554	148.57
32.26	521	148.47
32.27	507	148.37
32.28	479	148.27
32.29	486	148.17
32.3	447	148.07
32.31	463	147.97
32.32	441	147.87
32.33	397	147.77
32.34	393	147.67
32.35	359	147.57
32.36	341	147.47
32.37	325	147.37
32.38	298	147.27
32.39	254	147.17
32.4	244	147.07
32.41	216	146.97
32.42	231	146.87
32.43	174	146.77
32.44	213	146.67
32.45	187	146.57
32.46	186	146.47
32.47	201	146.37
32.48	178	146.27
32.49	170	146.17
32.5	174	146.07
32.51	186	145.97
32.52	170	145.87
32.53	156	145.77
32.54	177	145.67
32.55	153	145.57
32.56	158	145.47
32.57	158	145.38
32.58	171	145.28
32.59	159	145.18
32.6	177	145.08
32.61	162	144.98
32.62	155	144.88
32.63	165	144.78
32.64	171	144.68
32.65	171	144.58
32.66	150	144.48
32.67	153	144.38
32.68	161	144.28
32.69	149	144.18
32.7	153	144.09
32.71	152	143.99
32.72	163	143.89
32.73	165	143.79
32.74	168	143.69
32.75	164	143.59
32.76	145	143.49
32.77	189	143.39
32.78	164	143.29
32.79	156	143.2
32.8	149	143.1
32.81	155	143
32.82	164	142.9
32.83	156	142.8
32.84	148	142.7
32.85	136	142.6
32.86	172	142.5
32.87	169	142.41
32.88	163	142.31
32.89	160	142.21
32.9	163	142.11
32.91	143	142.01
32.92	166	141.91
32.93	166	141.82
32.94	135	141.72
32.95	153	141.62
32.96	158	141.52
32.97	160	141.42
32.98	157	141.33
32.99	163	141.23
33	155	141.13
33.01	156	141.03
33.02	166	140.93
33.03	176	140.84
33.04	163	140.74
33.05	160	140.64
33.06	179	140.54
33.07	160	140.45
33.08	164	140.35
33.09	172	140.25
33.1	148	140.15
33.11	156	140.05
33.12	143	139.96
33.13	158	139.86
33.14	137	139.76
33.15	159	139.67
33.16	165	139.57
33.17	143	139.47
33.18	131	139.37
33.19	123	139.28
33.2	156	139.18
33.21	154	139.08
33.22	138	138.99
33.23	157	138.89
33.24	153	138.79
33.25	142	138.69
33.26	143	138.6
33.27	156	138.5
33.28	155	138.4
33.29	141	138.31
33.3	145	138.21
33.31	148	138.11
33.32	146	138.02
33.33	145	137.92
33.34	150	137.83
33.35	136	137.73
33.36	147	137.63
33.37	152	137.54
33.38	151	137.44
33.39	138	137.34
33.4	149	137.25
33.41	127	137.15
33.42	134	137.06
33.43	136	136.96
33.44	133	136.86
33.45	151	136.77
33.46	153	136.67
33.47	150	136.58
33.48	144	136.48
33.49	146	136.39
33.5	141	136.29
33.51	137	136.19
33.52	151	136.1
33.53	137	136
33.54	145	135.91
33.55	151	135.81
33.56	132	135.72
33.57	150	135.62
33.58	124	135.53
33.59	139	135.43
33.6	149	135.34
33.61	132	135.24
33.62	126	135.15
33.63	121	135.05
33.64	133	134.96
33.65	151	134.86
33.66	132	134.77
33.67	143	134.67
33.68	137	134.58
33.69	147	134.48
33.7	141	134.39
33.71	139	134.3
33.72	135	134.2
33.73	150	134.11
33.74	139	134.01
33.75	158	133.92
33.76	129	133.82
33.77	132	133.73
33.78	143	133.64
33.79	143	133.54
33.8	167	133.45
33.81	133	133.35
33.82	110	133.26
33.83	137	133.17
33.84	143	133.07
33.85	154	132.98
33.86	126	132.89
33.87	132	132.79
33.88	138	132.7
33.89	141	132.61
33.9	137	132.51
33.91	155	132.42
33.92	125	132.33
33.93	142	132.23
33.94	172	132.14
33.95	125	132.05
33.96	164	131.96
33.97	162	131.86
33.98	148	131.77
33.99	147	131.68
34	146	131.58
34.01	127	131.49
34.02	113	131.4
34.03	149	131.31
34.04	124	131.21
34.05	142	131.12
34.06	170	131.03
34.07	142	130.94
34.08	139	130.85
34.09	144	130.75
34.1	126	130.66
34.11	129	130.57
34.12	156	130.48
34.13	132	130.39
34.14	120	130.3
34.15	149	130.2
34.16	142	130.11
34.17	150	130.02
34.18	121	129.93
34.19	124	129.84
34.2	131	129.75
34.21	126	129.66
34.22	139	129.56
34.23	143	129.47
34.24	151	129.38
34.25	148	129.29
34.26	137	129.2
34.27	136	129.11
34.28	126	129.02
34.29	152	128.93
34.3	154	128.84
34.31	119	128.75
34.32	129	128.66
34.33	142	128.57
34.34	146	128.48
34.35	133	128.39
34.36	143	128.3
34.37	147	128.21
34.38	141	128.12
34.39	131	128.03
34.4	126	127.94
34.41	151	127.85
34.42	135	127.76
34.43	116	127.67
34.44	121	127.58
34.45	139	127.49
34.46	142	127.4
34.47	133	127.31
34.48	134	127.22
34.49	132	127.13
34.5	127	127.04
34.51	126	126.95
34.52	154	126.87
34.53	117	126.78
34.54	138	126.69
34.55	147	126.6
34.56	135	126.51
34.57	139	126.42
34.58	126	126.33
34.59	121	126.25
34.6	145	126.16
34.61	129	126.07
34.62	121	125.98
34.63	124	125.89
34.64	139	125.81
34.65	138	125.72
34.66	125	125.63
34.67	120	125.54
34.68	132	125.45
34.69	138	125.37
34.7	154	125.28
34.71	121	125.19
34.72	140	125.1
34.73	154	125.02
34.74	138	124.93
34.75	112	124.84
34.76	137	124.76
34.77	133	124.67
34.78	156	124.58
34.79	138	124.5
34.8	122	124.41
34.81	130	124.32
34.82	129	124.24
34.83	136	124.15
34.84	112	124.06
34.85	128	123.98
34.86	132	123.89
34.87	133	123.8
34.88	143	123.72
34.89	128	123.63
34.9	146	123.55
34.91	152	123.46
34.92	129	123.37
34.93	139	123.29
34.94	125	123.2
34.95	130	123.12
34.96	134	123.03
34.97	142	122.95
34.98	129	122.86
34.99	125	122.78
35	148	122.69
35.01	131	122.61
35.02	129	122.52
35.03	127	122.44
35.04	131	122.35
35.05	146	122.27
35.06	135	122.18
35.07	142	122.1
35.08	144	122.01
35.09	132	121.93
35.1	128	121.85
35.11	133	121.76
35.12	143	121.68
35.13	131	121.59
35.14	140	121.51
35.15	136	121.43
35.16	142	121.34
35.17	133	121.26
35.18	156	121.18
35.19	155	121.09
35.2	174	121.01
35.21	158	120.93
35.22	166	120.84
35.23	147	120.76
35.24	160	120.68
35.25	167	120.59
35.26	184	120.51
35.27	187	120.43
35.28	163	120.35
35.29	189	120.26
35.3	190	120.18
35.31	195	120.1
35.32	179	120.02
35.33	187	119.93
35.34	203	119.85
35.35	177	119.77
35.36	200	119.69
35.37	196	119.61
35.38	167	119.52
35.39	169	119.44
35.4	166	119.36
35.41	176	119.28
35.42	180	119.2
35.43	165	119.12
35.44	155	119.04
35.45	163	118.95
35.46	151	118.87
35.47	148	118.79
35.48	126	118.71
35.49	151	118.63
35.5	160	118.55
35.51	132	118.47
35.52	164	118.39
35.53	122	118.31
35.54	144	118.23
35.55	118	118.15
35.56	131	118.07
35.57	119	117.99
35.58	140	117.91
35.59	127	117.83
35.6	137	117.75
35.61	106	117.67
35.62	122	117.59
35.63	117	117.51
35.64	115	117.43
35.65	111	117.35
35.66	114	117.27
35.67	111	117.19
35.68	103	117.11
35.69	131	117.03
35.7	132	116.96
35.71	111	116.88
35.72	118	116.8
35.73	134	116.72
35.74	110	116.64
35.75	121	116.56
35.76	120	116.48
35.77	151	116.41
35.78	118	116.33
35.79	141	116.25
35.8	129	116.17
35.81	129	116.1
35.82	118	116.02
35.83	113	115.94
35.84	106	115.86
35.85	108	115.78
35.86	108	115.71
35.87	114	115.63
35.88	113	115.55
35.89	116	115.48
35.9	133	115.4
35.91	117	115.32
35.92	104	115.25
35.93	119	115.17
35.94	115	115.09
35.95	111	115.02
35.96	127	114.94
35.97	117	114.86
35.98	124	114.79
35.99	109	114.71
36	131	114.63
36.01	126	114.56
36.02	106	114.48
36.03	109	114.41
36.04	110	114.33
36.05	120	114.26
36.06	132	114.18
36.07	109	114.11
36.08	119	114.03
36.09	116	113.96
36.1	136	113.88
36.11	115	113.81
36.12	129	113.73
36.13	126	113.66
36.14	86	113.58
36.15	112	113.51
36.16	118	113.43
36.17	120	113.36
36.18	117	113.28
36.19	124	113.21
36.2	135	113.14
36.21	94	113.06
36.22	109	112.99
36.23	136	112.91
36.24	106	112.84
36.25	103	112.77
36.26	101	112.69
36.27	109	112.62
36.28	136	112.55
36.29	120	112.47
36.3	100	112.4
36.31	127	112.33
36.32	124	112.25
36.33	125	112.18
36.34	120	112.11
36.35	97	112.04
36.36	123	111.96
36.37	128	111.89
36.38	105	111.82
36.39	106	111.75
36.4	118	111.67
36.41	97	111.6
36.42	100	111.53
36.43	126	111.46
36.44	108	111.39
36.45	122	111.32
36.46	126	111.24
36.47	114	111.17
36.48	90	111.1
36.49	91	111.03
36.5	115	110.96
36.51	132	110.89
36.52	112	110.82
36.53	108	110.75
36.54	104	110.68
36.55	127	110.6
36.56	99	110.53
36.57	99	110.46
36.58	118	110.39
36.59	113	110.32
36.6	115	110.25
36.61	109	110.18
36.62	114	110.11
36.63	115	110.04
36.64	127	109.97
36.65	96	109.9
36.66	109	109.83
36.67	114	109.77
36.68	114	109.7
36.69	109	109.63
36.7	108	109.56
36.71	97	109.49
36.72	126	109.42
36.73	109	109.35
36.74	112	109.28
36.75	119	109.21
36.76	118	109.15
36.77	112	109.08
36.78	111	109.01
36.79	104	108.94
36.8	104	108.87
36.81	79	108.8
36.82	122	108.74
36.83	98	108.67
36.84	122	108.6
36.85	112	108.53
36.86	133	108.47
36.87	112	108.4
36.88	98	108.33
36.89	107	108.26
36.9	114	108.2
36.91	124	108.13
36.92	118	108.06
36.93	95	108
36.94	109	107.93
36.95	113	107.86
36.96	127	107.8
36.97	102	107.73
36.98	88	107.66
36.99	110	107.6
37	111	107.53
37.01	100	107.47
37.02	117	107.4
37.03	106	107.33
37.04	133	107.27
37.05	117	107.2
37.06	110	107.14
37.07	113	107.07
37.08	108	107.01
37.09	111	106.94
37.1	110	106.88
37.11	106	106.81
37.12	119	106.75
37.13	105	106.68
37.14	131	106.62
37.15	106	106.55
37.16	88	106.49
37.17	84	106.42
37.18	102	106.36
37.19	97	106.3
37.2	95	106.23
37.21	101	106.17
37.22	104	106.1
37.23	107	106.04
37.24	100	105.98
37.25	92	105.91
37.26	97	105.85
37.27	100	105.79
37.28	80	105.72
37.29	120	105.66
37.3	102	105.6
37.31	83	105.53
37.32	99	105.47
37.33	109	105.41
37.34	100	105.35
37.35	95	105.28
37.36	106	105.22
37.37	109	105.16
37.38	107	105.1
37.39	106	105.03
37.4	103	104.97
37.41	129	104.91
37.42	114	104.85
37.43	105	104.79
37.44	122	104.72
37.45	114	104.66
37.46	116	104.6
37.47	93	104.54
37.48	110	104.48
37.49	92	104.42
37.5	121	104.36
37.51	105	104.3
37.52	100	104.24
37.53	114	104.18
37.54	113	104.11
37.55	105	104.05
37.56	99	103.99
37.57	112	103.93
37.58	99	103.87
37.59	97	103.81
37.6	124	103.75
37.61	109	103.69
37.62	129	103.63
37.63	112	103.57
37.64	97	103.51
37.65	117	103.46
37.66	119	103.4
37.67	108	103.34
37.68	98	103.28
37.69	114	103.22
37.7	104	103.16
37.71	92	103.1
37.72	107	103.04
37.73	107	102.98
37.74	98	102.93
37.75	102	102.87
37.76	97	102.81
37.77	104	102.75
37.78	118	102.69
37.79	88	102.63
37.8	118	102.58
37.81	122	102.52
37.82	94	102.46
37.83	98	102.4
37.84	93	102.35
37.85	105	102.29
37.86	116	102.23
37.87	117	102.17
37.88	88	102.12
37.89	109	102.06
37.9	88	102
37.91	102	101.95
37.92	113	101.89
37.93	91	101.83
37.94	95	101.78
37.95	90	101.72
37.96	97	101.66
37.97	104	101.61
37.98	83	101.55
37.99	117	101.5
38	88	101.44
38.01	96	101.38
38.02	97	101.33
38.03	119	101.27
38.04	114	101.22
38.05	87	101.16
38.06	100	101.11
38.07	110	101.05
38.08	94	101
38.09	89	100.94
38.1	102	100.89
38.11	111	100.83
38.12	83	100.78
38.13	123	100.72
38.14	103	100.67
38.15	89	100.61
38.16	115	100.56
38.17	80	100.51
38.18	95	100.45
38.19	112	100.4
38.2	93	100.34
38.21	76	100.29
38.22	101	100.24
38.23	116	100.18
38.24	102	100.13
38.25	88	100.08
38.26	120	100.02
38.27	88	99.97
38.28	98	99.92
38.29	110	99.86
38.3	103	99.81
38.31	96	99.76
38.32	105	99.71
38.33	99	99.65
38.34	80	99.6
38.35	95	99.55
38.36	96	99.5
38.37	106	99.45
38.38	99	99.39
38.39	95	99.34
38.4	85	99.29
38.41	88	99.24
38.42	101	99.19
38.43	89	99.13
38.44	99	99.08
38.45	108	99.03
38.46	96	98.98
38.47	99	98.93
38.48	79	98.88
38.49	108	98.83
38.5	95	98.78
38.51	82	98.73
38.52	95	98.68
38.53	107	98.63
38.54	91	98.58
38.55	93	98.52
38.56	93	98.47
38.57	97	98.42
38.58	92	98.37
38.59	87	98.32
38.6	110	98.28
38.61	91	98.23
38.62	106	98.18
38.63	87	98.13
38.64	89	98.08
38.65	89	98.03
38.66	106	97.98
38.67	101	97.93
38.68	88	97.88
38.69	91	97.83
38.7	107	97.78
38.71	88	97.73
38.72	90	97.69
38.73	99	97.64
38.74	90	97.59
38.75	73	97.54
38.76	101	97.49
38.77	95	97.44
38.78	98	97.4
38.79	111	97.35
38.8	94	97.3
38.81	95	97.25
38.82	116	97.21
38.83	111	97.16
38.84	83	97.11
38.85	102	97.06
38.86	106	97.02
38.87	84	96.97
38.88	97	96.92
38.89	93	96.87
38.9	109	96.83
38.91	92	96.78
38.92	78	96.73
38.93	110	96.69
38.94	83	96.64
38.95	85	96.6
38.96	91	96.55
38.97	91	96.5
38.98	105	96.46
38.99	86	96.41
39	97	96.37
39.01	90	96.32
39.02	107	96.27
39.03	92	96.23
39.04	99	96.18
39.05	89	96.14
39.06	99	96.09
39.07	95	96.05
39.08	94	96
39.09	96	95.96
39.1	88	95.91
39.11	121	95.87
39.12	90	95.82
39.13	84	95.78
39.14	107	95.73
39.15	108	95.69
39.16	104	95.65
39.17	82	95.6
39.18	93	95.56
39.19	100	95.51
39.2	93	95.47
39.21	99	95.43
39.22	98	95.38
39.23	91	95.34
39.24	105	95.29
39.25	99	95.25
39.26	94	95.21
39.27	78	95.16
39.28	104	95.12
39.29	87	95.08
39.3	98	95.04
39.31	102	94.99
39.32	93	94.95
39.33	88	94.91
39.34	88	94.87
39.35	92	94.82
39.36	105	94.78
39.37	81	94.74
39.38	89	94.7
39.39	86	94.65
39.4	102	94.61
39.41	103	94.57
39.42	107	94.53
39.43	97	94.49
39.44	88	94.44
39.45	96	94.4
39.46	111	94.36
39.47	89	94.32
39.48	116	94.28
39.49	95	94.24
39.5	104	94.2
39.51	83	94.16
39.52	100	94.12
39.53	114	94.07
39.54	96	94.03
39.55	97	93.99
39.56	106	93.95
39.57	88	93.91
39.58	90	93.87
39.59	85	93.83
39.6	92	93.79
39.61	80	93.75
39.62	98	93.71
39.63	87	93.67
39.64	103	93.63
39.65	85	93.59
39.66	95	93.55
39.67	100	93.51
39.68	91	93.47
39.69	91	93.44
39.7	103	93.4
39.71	112	93.36
39.72	109	93.32
39.73	109	93.28
39.74	101	93.24
39.75	107	93.2
39.76	98	93.16
39.77	112	93.12
39.78	90	93.09
39.79	107	93.05
39.8	101	93.01
39.81	98	92.97
39.82	106	92.93
39.83	94	92.9
39.84	122	92.86
39.85	94	92.82
39.86	77	92.78
39.87	100	92.74
39.88	96	92.71
39.89	75	92.67
39.9	85	92.63
39.91	101	92.6
39.92	99	92.56
39.93	101	92.52
39.94	101	92.48
39.95	85	92.45
39.96	98	92.41
39.97	96	92.37
39.98	74	92.34
39.99	73	92.3
40	108	92.26
40.01	100	92.23
40.02	94	92.19
40.03	79	92.16
40.04	106	92.12
40.05	96	92.08
40.06	103	92.05
40.07	106	92.01
40.08	75	91.98
40.09	97	91.94
40.1	98	91.9
40.11	87	91.87
40.12	114	91.83
40.13	89	91.8
40.14	99	91.76
40.15	95	91.73
40.16	96	91.69
40.17	103	91.66
40.18	114	91.62
40.19	97	91.59
40.2	104	91.55
40.21	102	91.52
40.22	72	91.48
40.23	87	91.45
40.24	94	91.42
40.25	121	91.38
40.26	91	91.35
40.27	104	91.31
40.28	91	91.28
40.29	100	91.25
40.3	76	91.21
40.31	98	91.18
40.32	94	91.14
40.33	87	91.11
40.34	95	91.08
40.35	98	91.04
40.36	98	91.01
40.37	106	90.98
40.38	84	90.94
40.39	92	90.91
40.4	91	90.88
40.41	94	90.85
40.42	78	90.81
40.43	99	90.78
40.44	103	90.75
40.45	101	90.72
40.46	107	90.68
40.47	91	90.65
40.48	114	90.62
40.49	106	90.59
40.5	100	90.55
40.51	100	90.52
40.52	105	90.49
40.53	87	90.46
40.54	106	90.43
40.55	94	90.39
40.56	107	90.36
40.57	106	90.33
40.58	97	90.3
40.59	122	90.27
40.6	107	90.24
40.61	126	90.21
40.62	114	90.18
40.63	109	90.14
40.64	117	90.11
40.65	107	90.08
40.66	134	90.05
40.67	130	90.02
40.68	139	89.99
40.69	123	89.96
40.7	139	89.93
40.71	131	89.9
40.72	129	89.87
40.73	126	89.84
40.74	156	89.81
40.75	147	89.78
40.76	152	89.75
40.77	166	89.72
40.78	161	89.69
40.79	176	89.66
40.8	147	89.63
40.81	182	89.6
40.82	178	89.57
40.83	179	89.54
40.84	206	89.51
40.85	184	89.48
40.86	173	89.45
40.87	175	89.42
40.88	213	89.4
40.89	213	89.37
40.9	186	89.34
40.91	186	89.31
40.92	187	89.28
40.93	194	89.25
40.94	207	89.22
40.95	228	89.19
40.96	205	89.17
40.97	227	89.14
40.98	213	89.11
40.99	243	89.08
41	217	89.05
41.01	227	89.03
41.02	215	89
41.03	219	88.97
41.04	215	88.94
41.05	210	88.91
41.06	196	88.89
41.07	204	88.86
41.08	183	88.83
41.09	173	88.8
41.1	163	88.78
41.11	182	88.75
41.12	162	88.72
41.13	171	88.7
41.14	167	88.67
41.15	157	88.64
41.16	169	88.62
41.17	158	88.59
41.18	138	88.56
41.19	130	88.54
41.2	132	88.51
41.21	104	88.48
41.22	124	88.46
41.23	110	88.43
41.24	109	88.4
41.25	103	88.38
41.26	113	88.35
41.27	123	88.33
41.28	102	88.3
41.29	115	88.27
41.3	106	88.25
41.31	97	88.22
41.32	110	88.2
41.33	101	88.17
41.34	98	88.15
41.35	107	88.12
41.36	99	88.1
41.37	102	88.07
41.38	109	88.04
41.39	105	88.02
41.4	89	87.99
41.41	112	87.97
41.42	101	87.94
41.43	99	87.92
41.44	86	87.9
41.45	108	87.87
41.46	85	87.85
41.47	89	87.82
41.48	97	87.8
41.49	88	87.77
41.5	87	87.75
41.51	91	87.72
41.52	103	87.7
41.53	88	87.68
41.54	98	87.65
41.55	100	87.63
41.56	102	87.6
41.57	90	87.58
41.58	93	87.56
41.59	102	87.53
41.6	108	87.51
41.61	95	87.49
41.62	88	87.46
41.63	104	87.44
41.64	85	87.42
41.65	86	87.39
41.66	95	87.37
41.67	107	87.35
41.68	104	87.32
41.69	91	87.3
41.7	91	87.28
41.71	87	87.25
41.72	118	87.23
41.73	83	87.21
41.74	104	87.19
41.75	107	87.16
41.76	89	87.14
41.77	98	87.12
41.78	104	87.1
41.79	102	87.07
41.8	102	87.05
41.81	105	87.03
41.82	99	87.01
41.83	105	86.99
41.84	96	86.96
41.85	91	86.94
41.86	94	86.92
41.87	102	86.9
41.88	101	86.88
41.89	107	86.86
41.9	95	86.83
41.91	95	86.81
41.92	87	86.79
41.93	81	86.77
41.94	89	86.75
41.95	92	86.73
41.96	111	86.71
41.97	98	86.68
41.98	117	86.66
41.99	98	86.64
42	103	86.62
42.01	87	86.6
42.02	93	86.58
42.03	103	86.56
42.04	112	86.54
42.05	105	86.52
42.06	83	86.5
42.07	90	86.48
42.08	84	86.46
42.09	124	86.44
42.1	96	86.42
42.11	96	86.4
42.12	102	86.38
42.13	77	86.36
42.14	99	86.34
42.15	74	86.32
42.16	98	86.3
42.17	103	86.28
42.18	81	86.26
42.19	86	86.24
42.2	112	86.22
42.21	90	86.2
42.22	92	86.18
42.23	108	86.16
42.24	94	86.14
42.25	91	86.12
42.26	83	86.1
42.27	97	86.08
42.28	104	86.06
42.29	84	86.04
42.3	106	86.02
42.31	88	86.01
42.32	109	85.99
42.33	85	85.97
42.34	90	85.95
42.35	111	85.93
42.36	95	85.91
42.37	101	85.89
42.38	91	85.87
42.39	97	85.86
42.4	84	85.84
42.41	95	85.82
42.42	100	85.8
42.43	98	85.78
42.44	92	85.76
42.45	104	85.75
42.46	94	85.73
42.47	96	85.71
42.48	83	85.69
42.49	98	85.67
42.5	120	85.66
42.51	103	85.64
42.52	94	85.62
42.53	112	85.6
42.54	87	85.59
42.55	106	85.57
42.56	84	85.55
42.57	97	85.53
42.58	92	85.52
42.59	118	85.5
42.6	98	85.48
42.61	94	85.46
42.62	88	85.45
42.63	104	85.43
42.64	101	85.41
42.65	83	85.4
42.66	88	85.38
42.67	106	85.36
42.68	103	85.35
42.69	95	85.33
42.7	103	85.31
42.71	103	85.29
42.72	115	85.28
42.73	111	85.26
42.74	108	85.25
42.75	102	85.23
42.76	119	85.21
42.77	94	85.2
42.78	105	85.18
42.79	114	85.16
42.8	89	85.15
42.81	118	85.13
42.82	85	85.12
42.83	103	85.1
42.84	134	85.08
42.85	104	85.07
42.86	123	85.05
42.87	96	85.04
42.88	126	85.02
42.89	117	85
42.9	140	84.99
42.91	115	84.97
42.92	118	84.96
42.93	123	84.94
42.94	131	84.93
42.95	114	84.91
42.96	136	84.9
42.97	138	84.88
42.98	119	84.86
42.99	140	84.85
43	133	84.83
43.01	137	84.82
43.02	117	84.8
43.03	105	84.79
43.04	115	84.77
43.05	130	84.76
43.06	112	84.74
43.07	116	84.73
43.08	100	84.72
43.09	118	84.7
43.1	121	84.69
43.11	128	84.67
43.12	123	84.66
43.13	139	84.64
43.14	105	84.63
43.15	105	84.61
43.16	107	84.6
43.17	112	84.58
43.18	118	84.57
43.19	127	84.56
43.2	114	84.54
43.21	101	84.53
43.22	126	84.51
43.23	112	84.5
43.24	126	84.49
43.25	123	84.47
43.26	113	84.46
43.27	110	84.44
43.28	114	84.43
43.29	134	84.42
43.3	123	84.4
43.31	126	84.39
43.32	122	84.38
43.33	135	84.36
43.34	131	84.35
43.35	131	84.33
43.36	146	84.32
43.37	162	84.31
43.38	157	84.29
43.39	169	84.28
43.4	144	84.27
43.41	174	84.25
43.42	157	84.24
43.43	164	84.23
43.44	202	84.21
43.45	187	84.2
43.46	177	84.19
43.47	181	84.18
43.48	168	84.16
43.49	201	84.15
43.5	195	84.14
43.51	180	84.12
43.52	174	84.11
43.53	164	84.1
43.54	162	84.09
43.55	176	84.07
43.56	172	84.06
43.57	181	84.05
43.58	194	84.04
43.59	192	84.02
43.6	174	84.01
43.61	178	84
43.62	138	83.99
43.63	162	83.97
43.64	170	83.96
43.65	145	83.95
43.66	162	83.94
43.67	138	83.93
43.68	146	83.91
43.69	108	83.9
43.7	125	83.89
43.71	120	83.88
43.72	127	83.87
43.73	143	83.85
43.74	129	83.84
43.75	135	83.83
43.76	121	83.82
43.77	132	83.81
43.78	105	83.79
43.79	121	83.78
43.8	94	83.77
43.81	105	83.76
43.82	106	83.75
43.83	126	83.74
43.84	105	83.72
43.85	93	83.71
43.86	91	83.7
43.87	93	83.69
43.88	110	83.68
43.89	99	83.67
43.9	106	83.66
43.91	105	83.65
43.92	88	83.63
43.93	73	83.62
43.94	96	83.61
43.95	87	83.6
43.96	100	83.59
43.97	98	83.58
43.98	84	83.57
43.99	87	83.56
44	111	83.55
44.01	90	83.53
44.02	106	83.52
44.03	101	83.51
44.04	82	83.5
44.05	91	83.49
44.06	97	83.48
44.07	105	83.47
44.08	100	83.46
44.09	82	83.45
44.1	82	83.44
44.11	82	83.43
44.12	91	83.42
44.13	96	83.41
44.14	100	83.4
44.15	94	83.39
44.16	98	83.38
44.17	81	83.37
44.18	74	83.36
44.19	88	83.34
44.2	90	83.33
44.21	108	83.32
44.22	102	83.31
44.23	69	83.3
44.24	85	83.29
44.25	83	83.28
44.26	84	83.27
44.27	82	83.26
44.28	92	83.25
44.29	91	83.24
44.3	89	83.23
44.31	90	83.22
44.32	88	83.21
44.33	99	83.2
44.34	89	83.19
44.35	105	83.18
44.36	69	83.17
44.37	110	83.17
44.38	85	83.16
44.39	85	83.15
44.4	96	83.14
44.41	83	83.13
44.42	104	83.12
44.43	84	83.11
44.44	70	83.1
44.45	105	83.09
44.46	84	83.08
44.47	85	83.07
44.48	92	83.06
44.49	90	83.05
44.5	92	83.04
44.51	100	83.03
44.52	81	83.02
44.53	106	83.01
44.54	76	83
44.55	75	83
44.56	96	82.99
44.57	94	82.98
44.58	77	82.97
44.59	93	82.96
44.6	81	82.95
44.61	89	82.94
44.62	82	82.93
44.63	82	82.92
44.64	93	82.91
44.65	100	82.9
44.66	98	82.9
44.67	108	82.89
44.68	86	82.88
44.69	83	82.87
44.7	101	82.86
44.71	86	82.85
44.72	85	82.84
44.73	94	82.83
44.74	94	82.82
44.75	103	82.82
44.76	79	82.81
44.77	89	82.8
44.78	95	82.79
44.79	78	82.78
44.8	80	82.77
44.81	96	82.76
44.82	93	82.76
44.83	89	82.75
44.84	89	82.74
44.85	91	82.73
44.86	86	82.72
44.87	90	82.71
44.88	96	82.71
44.89	97	82.7
44.9	91	82.69
44.91	76	82.68
44.92	88	82.67
44.93	86	82.66
44.94	103	82.66
44.95	75	82.65
44.96	82	82.64
44.97	104	82.63
44.98	111	82.62
44.99	86	82.61
45	91	82.61
45.01	91	82.6
45.02	90	82.59
45.03	91	82.58
45.04	88	82.57
45.05	88	82.57
45.06	94	82.56
45.07	74	82.55
45.08	90	82.54
45.09	93	82.53
45.1	75	82.53
45.11	101	82.52
45.12	81	82.51
45.13	90	82.5
45.14	89	82.49
45.15	105	82.49
45.16	85	82.48
45.17	93	82.47
45.18	77	82.46
45.19	92	82.45
45.2	87	82.45
45.21	90	82.44
45.22	101	82.43
45.23	95	82.42
45.24	77	82.42
45.25	93	82.41
45.26	98	82.4
45.27	89	82.39
45.28	88	82.39
45.29	95	82.38
45.3	71	82.37
45.31	77	82.36
45.32	91	82.36
45.33	78	82.35
45.34	82	82.34
45.35	103	82.33
45.36	95	82.33
45.37	70	82.32
45.38	92	82.31
45.39	96	82.3
45.4	97	82.3
45.41	90	82.29
45.42	89	82.28
45.43	91	82.27
45.44	73	82.27
45.45	100	82.26
45.46	100	82.25
45.47	76	82.24
45.48	75	82.24
45.49	89	82.23
45.5	82	82.22
45.51	96	82.21
45.52	76	82.21
45.53	75	82.2
45.54	95	82.19
45.55	84	82.19
45.56	98	82.18
45.57	82	82.17
45.58	109	82.16
45.59	98	82.16
45.6	63	82.15
45.61	88	82.14
45.62	89	82.13
45.63	95	82.13
45.64	94	82.12
45.65	89	82.11
45.66	83	82.11
45.67	94	82.1
45.68	93	82.09
45.69	88	82.09
45.7	77	82.08
45.71	78	82.07
45.72	94	82.06
45.73	85	82.06
45.74	87	82.05
45.75	67	82.04
45.76	72	82.04
45.77	69	82.03
45.78	84	82.02
45.79	88	82.02
45.8	90	82.01
45.81	79	82
45.82	93	81.99
45.83	95	81.99
45.84	82	81.98
45.85	89	81.97
45.86	85	81.97
45.87	76	81.96
45.88	90	81.95
45.89	93	81.95
45.9	81	81.94
45.91	87	81.93
45.92	110	81.93
45.93	93	81.92
45.94	84	81.91
45.95	101	81.91
45.96	93	81.9
45.97	107	81.89
45.98	85	81.88
45.99	112	81.88
46	88	81.87
46.01	90	81.86
46.02	94	81.86
46.03	100	81.85
46.04	102	81.84
46.05	96	81.84
46.06	104	81.83
46.07	93	81.82
46.08	89	81.82
46.09	113	81.81
46.1	90	81.8
46.11	100	81.8
46.12	105	81.79
46.13	92	81.78
46.14	100	81.78
46.15	107	81.77
46.16	116	81.76
46.17	98	81.76
46.18	78	81.75
46.19	101	81.74
46.2	105	81.74
46.21	87	81.73
46.22	84	81.72
46.23	95	81.72
46.24	88	81.71
46.25	109	81.7
46.26	68	81.7
46.27	96	81.69
46.28	93	81.68
46.29	100	81.68
46.3	82	81.67
46.31	101	81.66
46.32	102	81.66
46.33	101	81.65
46.34	81	81.64
46.35	96	81.64
46.36	82	81.63
46.37	82	81.62
46.38	94	81.62
46.39	91	81.61
46.4	77	81.6
46.41	86	81.6
46.42	89	81.59
46.43	81	81.58
46.44	80	81.58
46.45	86	81.57
46.46	73	81.57
46.47	83	81.56
46.48	85	81.55
46.49	78	81.55
46.5	77	81.54
46.51	83	81.53
46.52	81	81.53
46.53	73	81.52
46.54	90	81.51
46.55	93	81.51
46.56	91	81.5
46.57	74	81.49
46.58	103	81.49
46.59	91	81.48
46.6	87	81.47
46.61	85	81.47
46.62	82	81.46
46.63	74	81.45
46.64	86	81.45
46.65	82	81.44
46.66	75	81.43
46.67	88	81.43
46.68	90	81.42
46.69	76	81.41
46.7	71	81.41
46.71	74	81.4
46.72	86	81.39
46.73	76	81.39
46.74	83	81.38
46.75	80	81.37
46.76	71	81.37
46.77	103	81.36
46.78	86	81.36
46.79	66	81.35
46.8	90	81.34
46.81	70	81.34
46.82	85	81.33
46.83	97	81.32
46.84	90	81.32
46.85	90	81.31
46.86	88	81.3
46.87	72	81.3
46.88	87	81.29
46.89	99	81.28
46.9	84	81.28
46.91	64	81.27
46.92	90	81.26
46.93	69	81.26
46.94	84	81.25
46.95	112	81.24
46.96	90	81.24
46.97	81	81.23
46.98	74	81.22
46.99	83	81.22
47	82	81.21
47.01	102	81.2
47.02	83	81.2
47.03	72	81.19
47.04	101	81.18
47.05	82	81.18
47.06	96	81.17
47.07	93	81.16
47.08	88	81.16
47.09	74	81.15
47.1	85	81.14
47.11	91	81.14
47.12	67	81.13
47.13	80	81.12
47.14	88	81.12
47.15	88	81.11
47.16	83	81.1
47.17	101	81.1
47.18	89	81.09
47.19	87	81.08
47.2	90	81.08
47.21	84	81.07
47.22	89	81.06
47.23	90	81.06
47.24	94	81.05
47.25	74	81.04
47.26	93	81.04
47.27	90	81.03
47.28	84	81.02
47.29	91	81.02
47.3	89	81.01
47.31	83	81
47.32	82	81
47.33	93	80.99
47.34	73	80.98
47.35	84	80.97
47.36	82	80.97
47.37	98	80.96
47.38	88	80.95
47.39	72	80.95
47.4	77	80.94
47.41	111	80.93
47.42	80	80.93
47.43	77	80.92
47.44	81	80.91
47.45	79	80.91
47.46	103	80.9
47.47	105	80.89
47.48	93	80.89
47.49	91	80.88
47.5	73	80.87
47.51	85	80.86
47.52	79	80.86
47.53	90	80.85
47.54	94	80.84
47.55	89	80.84
47.56	84	80.83
47.57	101	80.82
47.58	91	80.82
47.59	91	80.81
47.6	82	80.8
47.61	76	80.79
47.62	87	80.79
47.63	86	80.78
47.64	81	80.77
47.65	92	80.77
47.66	90	80.76
47.67	103	80.75
47.68	83	80.74
47.69	98	80.74
47.7	108	80.73
47.71	90	80.72
47.72	93	80.72
47.73	98	80.71
47.74	101	80.7
47.75	112	80.69
47.76	108	80.69
47.77	104	80.68
47.78	85	80.67
47.79	87	80.67
47.8	79	80.66
47.81	92	80.65
47.82	93	80.64
47.83	99	80.64
47.84	89	80.63
47.85	83	80.62
47.86	90	80.62
47.87	103	80.61
47.88	81	80.6
47.89	89	80.59
47.9	85	80.59
47.91	80	80.58
47.92	85	80.57
47.93	85	80.56
47.94	86	80.56
47.95	69	80.55
47.96	105	80.54
47.97	92	80.53
47.98	96	80.53
47.99	95	80.52
48	68	80.51
48.01	93	80.5
48.02	75	80.5
48.03	81	80.49
48.04	97	80.48
48.05	78	80.47
48.06	91	80.47
48.07	65	80.46
48.08	96	80.45
48.09	80	80.44
48.1	97	80.44
48.11	90	80.43
48.12	94	80.42
48.13	92	80.41
48.14	98	80.41
48.15	88	80.4
48.16	93	80.39
48.17	86	80.38
48.18	84	80.38
48.19	79	80.37
48.2	80	80.36
48.21	81	80.35
48.22	85	80.34
48.23	79	80.34
48.24	89	80.33
48.25	84	80.32
48.26	56	80.31
48.27	86	80.31
48.28	79	80.3
48.29	68	80.29
48.3	82	80.28
48.31	79	80.27
48.32	93	80.27
48.33	85	80.26
48.34	64	80.25
48.35	81	80.24
48.36	91	80.23
48.37	84	80.23
48.38	76	80.22
48.39	89	80.21
48.4	90	80.2
48.41	74	80.19
48.42	100	80.19
48.43	87	80.18
48.44	90	80.17
48.45	84	80.16
48.46	80	80.15
48.47	85	80.15
48.48	76	80.14
48.49	76	80.13
48.5	86	80.12
48.51	77	80.11
48.52	69	80.11
48.53	83	80.1
48.54	85	80.09
48.55	82	80.08
48.56	90	80.07
48.57	76	80.06
48.58	85	80.06
48.59	89	80.05
48.6	86	80.04
48.61	82	80.03
48.62	80	80.02
48.63	76	80.01
48.64	80	80.01
48.65	62	80
48.66	77	79.99
48.67	61	79.98
48.68	86	79.97
48.69	84	79.96
48.7	91	79.96
48.71	84	79.95
48.72	78	79.94
48.73	90	79.93
48.74	85	79.92
48.75	99	79.91
48.76	72	79.9
48.77	70	79.9
48.78	74	79.89
48.79	82	79.88
48.8	83	79.87
48.81	103	79.86
48.82	70	79.85
48.83	78	79.84
48.84	90	79.83
48.85	75	79.83
48.86	76	79.82
48.87	80	79.81
48.88	72	79.8
48.89	82	79.79
48.9	80	79.78
48.91	73	79.77
48.92	73	79.76
48.93	87	79.76
48.94	81	79.75
48.95	89	79.74
48.96	78	79.73
48.97	78	79.72
48.98	77	79.71
48.99	71	79.7
49	65	79.69
49.01	92	79.68
49.02	80	79.68
49.03	88	79.67
49.04	64	79.66
49.05	78	79.65
49.06	66	79.64
49.07	70	79.63
49.08	95	79.62
49.09	82	79.61
49.1	73	79.6
49.11	88	79.59
49.12	99	79.58
49.13	82	79.58
49.14	69	79.57
49.15	72	79.56
49.16	93	79.55
49.17	75	79.54
49.18	83	79.53
49.19	79	79.52
49.2	86	79.51
49.21	68	79.5
49.22	68	79.49
49.23	86	79.48
49.24	85	79.47
49.25	90	79.46
49.26	80	79.45
49.27	68	79.44
49.28	88	79.44
49.29	82	79.43
49.3	80	79.42
49.31	85	79.41
49.32	92	79.4
49.33	75	79.39
49.34	76	79.38
49.35	83	79.37
49.36	86	79.36
49.37	72	79.35
49.38	77	79.34
49.39	82	79.33
49.4	83	79.32
49.41	93	79.31
49.42	73	79.3
49.43	91	79.29
49.44	72	79.28
49.45	86	79.27
49.46	86	79.26
49.47	80	79.25
49.48	90	79.24
49.49	100	79.23
49.5	85	79.22
49.51	90	79.21
49.52	96	79.2
49.53	92	79.19
49.54	77	79.18
49.55	80	79.17
49.56	79	79.16
49.57	70	79.15
49.58	74	79.14
49.59	60	79.13
49.6	82	79.12
49.61	57	79.11
49.62	70	79.1
49.63	80	79.09
49.64	87	79.08
49.65	79	79.07
49.66	78	79.06
49.67	82	79.05
49.68	71	79.04
49.69	92	79.03
49.7	79	79.02
49.71	84	79.01
49.72	88	79
49.73	72	78.99
49.74	70	78.98
49.75	80	78.97
49.76	74	78.96
49.77	85	78.95
49.78	62	78.94
49.79	86	78.93
49.8	68	78.92
49.81	82	78.91
49.82	73	78.9
49.83	100	78.89
49.84	68	78.88
49.85	75	78.86
49.86	77	78.85
49.87	80	78.84
49.88	80	78.83
49.89	72	78.82
49.9	87	78.81
49.91	59	78.8
49.92	71	78.79
49.93	65	78.78
49.94	79	78.77
49.95	96	78.76
49.96	71	78.75
49.97	78	78.74
49.98	90	78.73
49.99	77	78.72
50	71	78.7
50.01	72	78.69
50.02	86	78.68
50.03	72	78.67
50.04	91	78.66
50.05	71	78.65
50.06	75	78.64
50.07	69	78.63
50.08	78	78.62
50.09	90	78.61
50.1	75	78.6
50.11	89	78.58
50.12	71	78.57
50.13	74	78.56
50.14	89	78.55
50.15	97	78.54
50.16	66	78.53
50.17	75	78.52
50.18	72	78.51
50.19	79	78.5
50.2	84	78.48
50.21	67	78.47
50.22	69	78.46
50.23	71	78.45
50.24	86	78.44
50.25	83	78.43
50.26	91	78.42
50.27	82	78.41
50.28	83	78.39
50.29	84	78.38
50.3	76	78.37
50.31	84	78.36
50.32	67	78.35
50.33	88	78.34
50.34	81	78.33
50.35	85	78.31
50.36	77	78.3
50.37	92	78.29
50.38	90	78.28
50.39	78	78.27
50.4	93	78.26
50.41	88	78.25
50.42	98	78.23
50.43	93	78.22
50.44	96	78.21
50.45	85	78.2
50.46	105	78.19
50.47	115	78.18
50.48	106	78.16
50.49	102	78.15
50.5	122	78.14
50.51	115	78.13
50.52	119	78.12
50.53	108	78.11
50.54	101	78.09
50.55	121	78.08
50.56	118	78.07
50.57	114	78.06
50.58	115	78.05
50.59	98	78.03
50.6	102	78.02
50.61	120	78.01
50.62	116	78
50.63	104	77.99
50.64	117	77.97
50.65	120	77.96
50.66	95	77.95
50.67	92	77.94
50.68	120	77.93
50.69	86	77.91
50.7	101	77.9
50.71	103	77.89
50.72	93	77.88
50.73	103	77.87
50.74	91	77.85
50.75	95	77.84
50.76	91	77.83
50.77	95	77.82
50.78	84	77.81
50.79	93	77.79
50.8	95	77.78
50.81	98	77.77
50.82	85	77.76
50.83	90	77.74
50.84	82	77.73
50.85	85	77.72
50.86	72	77.71
50.87	65	77.7
50.88	73	77.68
50.89	80	77.67
50.9	69	77.66
50.91	96	77.65
50.92	73	77.63
50.93	81	77.62
50.94	77	77.61
50.95	89	77.6
50.96	87	77.58
50.97	81	77.57
50.98	82	77.56
50.99	59	77.55
51	89	77.53
51.01	75	77.52
51.02	81	77.51
51.03	73	77.5
51.04	85	77.48
51.05	82	77.47
51.06	81	77.46
51.07	81	77.45
51.08	76	77.43
51.09	85	77.42
51.1	74	77.41
51.11	81	77.39
51.12	91	77.38
51.13	70	77.37
51.14	85	77.36
51.15	88	77.34
51.16	102	77.33
51.17	80	77.32
51.18	79	77.3
51.19	76	77.29
51.2	95	77.28
51.21	84	77.27
51.22	69	77.25
51.23	77	77.24
51.24	81	77.23
51.25	76	77.21
51.26	72	77.2
51.27	69	77.19
51.28	77	77.18
51.29	69	77.16
51.3	77	77.15
51.31	69	77.14
51.32	102	77.12
51.33	74	77.11
51.34	65	77.1
51.35	75	77.08
51.36	74	77.07
51.37	90	77.06
51.38	79	77.05
51.39	63	77.03
51.4	69	77.02
51.41	74	77.01
51.42	81	76.99
51.43	91	76.98
51.44	72	76.97
51.45	83	76.95
51.46	93	76.94
51.47	80	76.93
51.48	85	76.91
51.49	91	76.9
51.5	86	76.89
51.51	74	76.87
51.52	97	76.86
51.53	91	76.85
51.54	93	76.83
51.55	70	76.82
51.56	77	76.81
51.57	66	76.79
51.58	67	76.78
51.59	75	76.77
51.6	87	76.75
51.61	77	76.74
51.62	57	76.73
51.63	74	76.71
51.64	82	76.7
51.65	79	76.69
51.66	89	76.67
51.67	69	76.66
51.68	70	76.65
51.69	84	76.63
51.7	88	76.62
51.71	90	76.61
51.72	78	76.59
51.73	78	76.58
51.74	83	76.57
51.75	77	76.55
51.76	63	76.54
51.77	71	76.53
51.78	72	76.51
51.79	81	76.5
51.8	82	76.48
51.81	66	76.47
51.82	72	76.46
51.83	79	76.44
51.84	71	76.43
51.85	78	76.42
51.86	57	76.4
51.87	102	76.39
51.88	74	76.38
51.89	80	76.36
51.9	84	76.35
51.91	65	76.33
51.92	67	76.32
51.93	92	76.31
51.94	78	76.29
51.95	70	76.28
51.96	80	76.27
51.97	84	76.25
51.98	76	76.24
51.99	93	76.22
52	71	76.21
52.01	69	76.2
52.02	83	76.18
52.03	91	76.17
52.04	69	76.16
52.05	74	76.14
52.06	81	76.13
52.07	84	76.11
52.08	77	76.1
52.09	82	76.09
52.1	80	76.07
52.11	62	76.06
52.12	77	76.05
52.13	95	76.03
52.14	79	76.02
52.15	87	76
52.16	83	75.99
52.17	82	75.98
52.18	71	75.96
52.19	88	75.95
52.2	78	75.93
52.21	69	75.92
52.22	87	75.91
52.23	80	75.89
52.24	82	75.88
52.25	99	75.86
52.26	70	75.85
52.27	74	75.84
52.28	86	75.82
52.29	91	75.81
52.3	64	75.8
52.31	83	75.78
52.32	78	75.77
52.33	76	75.75
52.34	89	75.74
52.35	92	75.73
52.36	73	75.71
52.37	89	75.7
52.38	78	75.68
52.39	93	75.67
52.4	73	75.66
52.41	80	75.64
52.42	88	75.63
52.43	80	75.61
52.44	86	75.6
52.45	99	75.59
52.46	86	75.57
52.47	85	75.56
52.48	89	75.54
52.49	77	75.53
52.5	80	75.52
52.51	90	75.5
52.52	76	75.49
52.53	76	75.47
52.54	73	75.46
52.55	91	75.45
52.56	83	75.43
52.57	80	75.42
52.58	101	75.4
52.59	72	75.39
52.6	89	75.38
52.61	70	75.36
52.62	84	75.35
52.63	86	75.33
52.64	76	75.32
52.65	72	75.31
52.66	66	75.29
52.67	82	75.28
52.68	95	75.26
52.69	95	75.25
52.7	84	75.24
52.71	79	75.22
52.72	82	75.21
52.73	71	75.19
52.74	83	75.18
52.75	80	75.17
52.76	69	75.15
52.77	94	75.14
52.78	84	75.12
52.79	94	75.11
52.8	63	75.1
52.81	87	75.08
52.82	89	75.07
52.83	88	75.05
52.84	90	75.04
52.85	78	75.03
52.86	99	75.01
52.87	91	75
52.88	114	74.98
52.89	84	74.97
52.9	109	74.96
52.91	104	74.94
52.92	96	74.93
52.93	90	74.91
52.94	90	74.9
52.95	87	74.89
52.96	101	74.87
52.97	107	74.86
52.98	96	74.84
52.99	92	74.83
53	110	74.82
53.01	91	74.8
53.02	101	74.79
53.03	77	74.77
53.04	87	74.76
53.05	92	74.75
53.06	86	74.73
53.07	70	74.72
53.08	100	74.7
53.09	105	74.69
53.1	84	74.68
53.11	78	74.66
53.12	81	74.65
53.13	72	74.63
53.14	93	74.62
53.15	98	74.61
53.16	75	74.59
53.17	66	74.58
53.18	83	74.57
53.19	81	74.55
53.2	70	74.54
53.21	73	74.52
53.22	66	74.51
53.23	98	74.5
53.24	76	74.48
53.25	73	74.47
53.26	75	74.46
53.27	75	74.44
53.28	82	74.43
53.29	74	74.41
53.3	84	74.4
53.31	71	74.39
53.32	90	74.37
53.33	69	74.36
53.34	80	74.35
53.35	75	74.33
53.36	73	74.32
53.37	85	74.3
53.38	76	74.29
53.39	85	74.28
53.4	73	74.26
53.41	73	74.25
53.42	82	74.24
53.43	71	74.22
53.44	92	74.21
53.45	73	74.2
53.46	77	74.18
53.47	77	74.17
53.48	83	74.16
53.49	67	74.14
53.5	74	74.13
53.51	61	74.11
53.52	72	74.1
53.53	78	74.09
53.54	83	74.07
53.55	67	74.06
53.56	91	74.05
53.57	70	74.03
53.58	90	74.02
53.59	80	74.01
53.6	75	73.99
53.61	57	73.98
53.62	77	73.97
53.63	78	73.95
53.64	91	73.94
53.65	69	73.93
53.66	85	73.91
53.67	73	73.9
53.68	65	73.89
53.69	71	73.87
53.7	73	73.86
53.71	76	73.85
53.72	75	73.84
53.73	75	73.82
53.74	84	73.81
53.75	75	73.8
53.76	72	73.78
53.77	68	73.77
53.78	78	73.76
53.79	71	73.74
53.8	54	73.73
53.81	77	73.72
53.82	76	73.7
53.83	87	73.69
53.84	61	73.68
53.85	79	73.67
53.86	72	73.65
53.87	77	73.64
53.88	80	73.63
53.89	83	73.61
53.9	75	73.6
53.91	86	73.59
53.92	78	73.58
53.93	69	73.56
53.94	75	73.55
53.95	68	73.54
53.96	71	73.53
53.97	67	73.51
53.98	82	73.5
53.99	82	73.49
54	76	73.47
54.01	56	73.46
54.02	79	73.45
54.03	82	73.44
54.04	84	73.42
54.05	51	73.41
54.06	72	73.4
54.07	85	73.39
54.08	78	73.37
54.09	81	73.36
54.1	63	73.35
54.11	83	73.34
54.12	80	73.33
54.13	77	73.31
54.14	78	73.3
54.15	81	73.29
54.16	81	73.28
54.17	74	73.26
54.18	66	73.25
54.19	83	73.24
54.2	77	73.23
54.21	73	73.22
54.22	83	73.2
54.23	81	73.19
54.24	91	73.18
54.25	80	73.17
54.26	94	73.16
54.27	80	73.14
54.28	90	73.13
54.29	90	73.12
54.3	80	73.11
54.31	74	73.1
54.32	68	73.08
54.33	79	73.07
54.34	73	73.06
54.35	73	73.05
54.36	90	73.04
54.37	69	73.03
54.38	89	73.01
54.39	69	73
54.4	98	72.99
54.41	53	72.98
54.42	72	72.97
54.43	79	72.96
54.44	68	72.95
54.45	70	72.93
54.46	79	72.92
54.47	71	72.91
54.48	80	72.9
54.49	74	72.89
54.5	92	72.88
54.51	69	72.87
54.52	92	72.86
54.53	101	72.85
54.54	83	72.83
54.55	87	72.82
54.56	80	72.81
54.57	73	72.8
54.58	78	72.79
54.59	97	72.78
54.6	70	72.77
54.61	68	72.76
54.62	72	72.75
54.63	83	72.74
54.64	81	72.73
54.65	86	72.71
54.66	75	72.7
54.67	69	72.69
54.68	105	72.68
54.69	61	72.67
54.7	94	72.66
54.71	72	72.65
54.72	79	72.64
54.73	81	72.63
54.74	94	72.62
54.75	80	72.61
54.76	79	72.6
54.77	72	72.59
54.78	74	72.58
54.79	74	72.57
54.8	72	72.56
54.81	95	72.55
54.82	71	72.54
54.83	102	72.53
54.84	102	72.52
54.85	88	72.51
54.86	86	72.5
54.87	75	72.49
54.88	88	72.48
54.89	72	72.47
54.9	71	72.46
54.91	84	72.45
54.92	80	72.44
54.93	91	72.43
54.94	95	72.42
54.95	89	72.41
54.96	86	72.4
54.97	92	72.4
54.98	88	72.39
54.99	92	72.38
55	75	72.37
55.01	69	72.36
55.02	89	72.35
55.03	82	72.34
55.04	97	72.33
55.05	73	72.32
55.06	87	72.31
55.07	87	72.3
55.08	84	72.3
55.09	86	72.29
55.1	74	72.28
55.11	86	72.27
55.12	91	72.26
55.13	69	72.25
55.14	81	72.24
55.15	81	72.24
55.16	82	72.23
55.17	81	72.22
55.18	78	72.21
55.19	79	72.2
55.2	86	72.19
55.21	84	72.19
55.22	61	72.18
55.23	71	72.17
55.24	87	72.16
55.25	81	72.15
55.26	84	72.15
55.27	78	72.14
55.28	78	72.13
55.29	84	72.12
55.3	107	72.11
55.31	73	72.11
55.32	67	72.1
55.33	56	72.09
55.34	75	72.08
55.35	75	72.08
55.36	79	72.07
55.37	64	72.06
55.38	91	72.06
55.39	78	72.05
55.4	81	72.04
55.41	82	72.03
55.42	73	72.03
55.43	76	72.02
55.44	79	72.01
55.45	82	72.01
55.46	75	72
55.47	89	71.99
55.48	70	71.99
55.49	84	71.98
55.5	90	71.97
55.51	65	71.97
55.52	82	71.96
55.53	86	71.95
55.54	78	71.95
55.55	67	71.94
55.56	91	71.93
55.57	92	71.93
55.58	84	71.92
55.59	86	71.92
55.6	80	71.91
55.61	71	71.9
55.62	51	71.9
55.63	72	71.89
55.64	82	71.89
55.65	74	71.88
55.66	79	71.88
55.67	82	71.87
55.68	79	71.87
55.69	79	71.86
55.7	68	71.85
55.71	79	71.85
55.72	73	71.84
55.73	82	71.84
55.74	85	71.83
55.75	78	71.83
55.76	85	71.82
55.77	88	71.82
55.78	64	71.81
55.79	81	71.81
55.8	80	71.81
55.81	85	71.8
55.82	76	71.8
55.83	74	71.79
55.84	88	71.79
55.85	85	71.78
55.86	71	71.78
55.87	90	71.77
55.88	84	71.77
55.89	92	71.77
55.9	67	71.76
55.91	70	71.76
55.92	86	71.75
55.93	84	71.75
55.94	74	71.75
55.95	70	71.74
55.96	85	71.74
55.97	62	71.74
55.98	78	71.73
55.99	71	71.73
56	70	71.73
56.01	72	71.72
56.02	82	71.72
56.03	75	71.72
56.04	80	71.72
56.05	61	71.71
56.06	60	71.71
56.07	81	71.71
56.08	85	71.7
56.09	93	71.7
56.1	79	71.7
56.11	69	71.7
56.12	86	71.7
56.13	80	71.69
56.14	81	71.69
56.15	74	71.69
56.16	70	71.69
56.17	69	71.69
56.18	71	71.68
56.19	73	71.68
56.2	78	71.68
56.21	80	71.68
56.22	101	71.68
56.23	94	71.68
56.24	69	71.67
56.25	67	71.67
56.26	81	71.67
56.27	74	71.67
56.28	77	71.67
56.29	95	71.67
56.3	70	71.67
56.31	69	71.67
56.32	80	71.67
56.33	66	71.67
56.34	89	71.67
56.35	77	71.67
56.36	79	71.67
56.37	69	71.67
56.38	76	71.67
56.39	76	71.67
56.4	82	71.67
56.41	86	71.67
56.42	68	71.67
56.43	89	71.67
56.44	81	71.67
56.45	81	71.67
56.46	75	71.67
56.47	94	71.67
56.48	81	71.67
56.49	87	71.67
56.5	71	71.67
56.51	90	71.67
56.52	83	71.67
56.53	72	71.67
56.54	76	71.68
56.55	88	71.68
56.56	79	71.68
56.57	82	71.68
56.58	74	71.68
56.59	79	71.68
56.6	74	71.69
56.61	86	71.69
56.62	86	71.69
56.63	72	71.69
56.64	75	71.69
56.65	75	71.7
56.66	83	71.7
56.67	89	71.7
56.68	77	71.7
56.69	70	71.71
56.7	84	71.71
56.71	84	71.71
56.72	74	71.72
56.73	72	71.72
56.74	77	71.72
56.75	79	71.73
56.76	94	71.73
56.77	69	71.73
56.78	81	71.74
56.79	84	71.74
56.8	86	71.74
56.81	94	71.75
56.82	82	71.75
56.83	61	71.76
56.84	83	71.76
56.85	94	71.76
56.86	66	71.77
56.87	66	71.77
56.88	82	71.78
56.89	84	71.78
56.9	82	71.79
56.91	82	71.79
56.92	82	71.8
56.93	85	71.8
56.94	68	71.81
56.95	61	71.81
56.96	81	71.82
56.97	82	71.83
56.98	68	71.83
56.99	88	71.84
57	82	71.84
57.01	61	71.85
57.02	90	71.86
57.03	89	71.86
57.04	75	71.87
57.05	85	71.87
57.06	62	71.88
57.07	84	71.89
57.08	87	71.89
57.09	84	71.9
57.1	74	71.91
57.11	91	71.92
57.12	72	71.92
57.13	67	71.93
57.14	81	71.94
57.15	82	71.95
57.16	83	71.95
57.17	71	71.96
57.18	78	71.97
57.19	84	71.98
57.2	79	71.99
57.21	85	71.99
57.22	91	72
57.23	70	72.01
57.24	78	72.02
57.25	88	72.03
57.26	79	72.04
57.27	88	72.05
57.28	76	72.06
57.29	88	72.07
57.3	65	72.07
57.31	79	72.08
57.32	91	72.09
57.33	75	72.1
57.34	88	72.11
57.35	68	72.12
57.36	75	72.13
57.37	83	72.14
57.38	65	72.15
57.39	79	72.17
57.4	79	72.18
57.41	71	72.19
57.42	81	72.2
57.43	70	72.21
57.44	82	72.22
57.45	73	72.23
57.46	79	72.24
57.47	91	72.25
57.48	83	72.26
57.49	80	72.28
57.5	65	72.29
57.51	86	72.3
57.52	67	72.31
57.53	72	72.33
57.54	82	72.34
57.55	65	72.35
57.56	86	72.36
57.57	63	72.38
57.58	62	72.39
57.59	72	72.4
57.6	65	72.41
57.61	97	72.43
57.62	70	72.44
57.63	65	72.46
57.64	71	72.47
57.65	79	72.48
57.66	66	72.5
57.67	73	72.51
57.68	90	72.53
57.69	90	72.54
57.7	65	72.55
57.71	70	72.57
57.72	71	72.58
57.73	96	72.6
57.74	63	72.61
57.75	64	72.63
57.76	75	72.64
57.77	85	72.66
57.78	66	72.68
57.79	109	72.69
57.8	75	72.71
57.81	88	72.72
57.82	59	72.74
57.83	90	72.76
57.84	75	72.77
57.85	74	72.79
57.86	81	72.81
57.87	86	72.82
57.88	82	72.84
57.89	84	72.86
57.9	78	72.88
57.91	80	72.89
57.92	77	72.91
57.93	70	72.93
57.94	77	72.95
57.95	67	72.96
57.96	74	72.98
57.97	81	73
57.98	82	73.02
57.99	100	73.04
58	75	73.06
58.01	77	73.08
58.02	79	73.1
58.03	62	73.11
58.04	68	73.13
58.05	77	73.15
58.06	79	73.17
58.07	58	73.19
58.08	84	73.21
58.09	87	73.23
58.1	85	73.25
58.11	88	73.27
58.12	87	73.29
58.13	78	73.31
58.14	77	73.33
58.15	68	73.36
58.16	73	73.38
58.17	70	73.4
58.18	70	73.42
58.19	70	73.44
58.2	78	73.47
58.21	74	73.49
58.22	79	73.51
58.23	64	73.53
58.24	75	73.55
58.25	81	73.58
58.26	67	73.6
58.27	71	73.62
58.28	94	73.65
58.29	59	73.67
58.3	98	73.69
58.31	73	73.72
58.32	73	73.74
58.33	81	73.76
58.34	80	73.79
58.35	63	73.81
58.36	83	73.84
58.37	74	73.86
58.38	85	73.89
58.39	77	73.91
58.4	68	73.94
58.41	96	73.96
58.42	72	73.99
58.43	98	74.01
58.44	67	74.04
58.45	70	74.06
58.46	68	74.09
58.47	89	74.12
58.48	77	74.14
58.49	63	74.17
58.5	90	74.2
58.51	77	74.22
58.52	81	74.25
58.53	91	74.28
58.54	89	74.31
58.55	70	74.33
58.56	82	74.36
58.57	70	74.39
58.58	79	74.42
58.59	78	74.45
58.6	66	74.47
58.61	81	74.5
58.62	81	74.53
58.63	65	74.56
58.64	76	74.59
58.65	93	74.62
58.66	85	74.65
58.67	64	74.68
58.68	75	74.71
58.69	86	74.74
58.7	80	74.77
58.71	71	74.8
58.72	70	74.83
58.73	76	74.86
58.74	76	74.89
58.75	87	74.92
58.76	71	74.95
58.77	72	74.99
58.78	72	75.02
58.79	77	75.05
58.8	61	75.08
58.81	92	75.12
58.82	94	75.15
58.83	75	75.18
58.84	68	75.21
58.85	84	75.25
58.86	88	75.28
58.87	77	75.31
58.88	78	75.35
58.89	85	75.38
58.9	81	75.41
58.91	83	75.45
58.92	78	75.48
58.93	68	75.52
58.94	89	75.55
58.95	89	75.59
58.96	83	75.62
58.97	76	75.66
58.98	79	75.69
58.99	89	75.73
59	81	75.77
59.01	93	75.8
59.02	87	75.84
59.03	77	75.87
59.04	88	75.91
59.05	81	75.95
59.06	93	75.99
59.07	83	76.02
59.08	94	76.06
59.09	86	76.1
59.1	89	76.14
59.11	112	76.17
59.12	92	76.21
59.13	84	76.25
59.14	98	76.29
59.15	82	76.33
59.16	94	76.37
59.17	84	76.41
59.18	95	76.45
59.19	76	76.48
59.2	96	76.52
59.21	97	76.57
59.22	87	76.61
59.23	94	76.65
59.24	82	76.69
59.25	104	76.73
59.26	104	76.77
59.27	96	76.81
59.28	91	76.85
59.29	82	76.89
59.3	96	76.94
59.31	92	76.98
59.32	93	77.02
59.33	86	77.06
59.34	97	77.11
59.35	86	77.15
59.36	79	77.19
59.37	93	77.23
59.38	104	77.28
59.39	83	77.32
59.4	90	77.37
59.41	75	77.41
59.42	95	77.45
59.43	79	77.5
59.44	81	77.55
59.45	76	77.59
59.46	81	77.64
59.47	79	77.68
59.48	72	77.73
59.49	72	77.77
59.5	86	77.82
59.51	77	77.87
59.52	83	77.91
59.53	77	77.96
59.54	81	78.01
59.55	91	78.05
59.56	82	78.1
59.57	85	78.15
59.58	79	78.2
59.59	62	78.25
59.6	78	78.29
59.61	78	78.34
59.62	81	78.39
59.63	64	78.44
59.64	79	78.49
59.65	85	78.54
59.66	64	78.59
59.67	88	78.64
59.68	84	78.69
59.69	67	78.74
59.7	75	78.79
59.71	83	78.84
59.72	68	78.89
59.73	75	78.95
59.74	96	79
59.75	54	79.05
59.76	74	79.1
59.77	89	79.15
59.78	79	79.2
59.79	88	79.26
59.8	66	79.31
59.81	74	79.37
59.82	86	79.42
59.83	76	79.47
59.84	88	79.53
59.85	73	79.58
59.86	82	79.64
59.87	78	79.69
59.88	72	79.74
59.89	63	79.8
59.9	75	79.85
59.91	79	79.91
59.92	82	79.97
59.93	80	80.02
59.94	67	80.08
59.95	93	80.14
59.96	98	80.19
59.97	73	80.25
59.98	88	80.31
59.99	73	80.36
60	87	80.42
